timestamp,sampleNum,Filtered_PPG
1721373999023.9492,1,2.231743199938598
1721373999033.8984,2,2.708858848954758
1721373999043.8477,3,3.200991943886666
1721373999053.7966,4,3.702282621455976
1721373999063.7458,5,4.207802662157661
1721373999073.6953,6,4.713928351512909
1721373999083.6443,7,5.218533427871153
1721373999093.5935,8,5.720974222664427
1721373999103.5427,9,6.221860587112271
1721373999113.492,10,6.722645239559912
1721373999123.441,11,7.2251023256091225
1721373999133.39,12,7.73077541464147
1721373999143.3394,13,8.240453409784337
1721373999153.2886,14,8.753705047094813
1721373999163.2378,15,9.268492159580989
1721373999173.187,16,9.780883912281295
1721373999183.1362,17,10.284885193221099
1721373999193.0854,18,10.772376342362804
1721373999203.0344,19,11.233165403240742
1721373999212.9836,20,11.65516660768937
1721373999222.9329,21,12.024714748746794
1721373999232.882,22,12.32701555155251
1721373999242.8313,23,12.546717893543194
1721373999252.7805,24,12.668564365278431
1721373999262.7295,25,12.678062874701803
1721373999272.6787,26,12.56214456346586
1721373999282.628,27,12.309796433933267
1721373999292.5771,28,11.912652380372364
1721373999302.5264,29,11.365510904717858
1721373999312.4756,30,10.666743995023916
1721373999322.4248,31,9.818566557163622
1721373999332.374,32,8.827139495722818
1721373999342.323,33,7.702489429288591
1721373999352.2722,34,6.458249924256121
1721373999362.2214,35,5.111249328023486
1721373999372.171,36,3.680978844482964
1721373999382.12,37,2.188976897228632
1721373999392.069,38,0.6581678675475156
1721373999402.0183,39,-0.8878074495079054
1721373999411.9675,40,-2.4252410391894874
1721373999421.9165,41,-3.930973994258089
1721373999431.8655,42,-5.382982640261291
1721373999441.8147,43,-6.760937800067888
1721373999451.7642,44,-8.04672139844352
1721373999461.7134,45,-9.224865296520335
1721373999471.6626,46,-10.282882361995581
1721373999481.6118,47,-11.211478509683989
1721373999491.5608,48,-12.004640863736938
1721373999501.51,49,-12.659600527444006
1721373999511.4592,50,-13.176682221327448
1721373999521.4084,51,-13.559059455814987
1721373999531.3577,52,-13.812430708530428
1721373999541.307,53,-13.944634385918004
1721373999551.256,54,-13.965219990579557
1721373999561.205,55,-13.884989215942705
1721373999571.1543,56,-13.71552747409937
1721373999581.1035,57,-13.468751004041373
1721373999591.0527,58,-13.156486721750293
1721373999601.002,59,-12.790097392749589
1721373999610.9512,60,-12.38016131736
1721373999620.9004,61,-11.9362017956051
1721373999630.8496,62,-11.466457600900807
1721373999640.7986,63,-10.977705214310642
1721373999650.7478,64,-10.475160420726514
1721373999660.697,65,-9.962474956907007
1721373999670.6462,66,-9.441812015982526
1721373999680.5957,67,-8.913969964416326
1721373999690.545,68,-8.378543333177875
1721373999700.494,69,-7.834127921375655
1721373999710.4429,70,-7.278562479800525
1721373999720.392,71,-6.70917460300632
1721373999730.3413,72,-6.122994901423626
1721373999740.2903,73,-5.516923093876741
1721373999750.2395,74,-4.887851552747231
1721373999760.189,75,-4.232761268340301
1721373999770.1382,76,-3.548805752636724
1721373999780.0872,77,-2.8333949961962945
1721373999790.0364,78,-2.084284456481775
1721373999799.9856,79,-1.2996669081310075
1721373999809.9348,80,-0.4782652196957658
1721373999819.884,81,0.38056459322230274
1721373999829.8333,82,1.2767033650039303
1721373999839.7825,83,2.20910657487104
1721373999849.7314,84,3.1756182225241236
1721373999859.681,85,4.172773283373289
1721373999869.63,86,5.195609818920493
1721373999879.579,87,6.237518912717227
1721373999889.5283,88,7.290149380852143
1721373999899.4775,89,8.34336551755215
1721373999909.4268,90,9.385250676239002
1721373999919.376,91,10.402160358532681
1721373999929.325,92,11.378843474788134
1721373999939.2742,93,12.298655440962044
1721373999949.2234,94,13.143876861087067
1721373999959.1726,95,13.896135765469085
1721373999969.1218,96,14.53692444781312
1721373999979.071,97,15.048203314775668
1721373999989.0205,98,15.413077639429739
1721373999998.9692,99,15.616514058654912
1721374000008.9185,100,15.646047469726877
1721374000018.8677,101,15.492428894276623
1721374000028.817,102,15.150175203926679
1721374000038.766,103,14.61799036863708
1721374000048.715,104,13.899033925467577
1721374000058.6646,105,13.001016358053025
1721374000068.6135,106,11.936104287672052
1721374000078.5627,107,10.720635244248484
1721374000088.512,108,9.374670383396374
1721374000098.4612,109,7.9214192735138615
1721374000108.4104,110,6.386550458931019
1721374000118.3596,111,4.797397327588363
1721374000128.3088,112,3.182090752908954
1721374000138.258,113,1.568667000939228
1721374000148.207,114,-0.015800880819656384
1721374000158.1562,115,-1.546006433339404
1721374000168.1057,116,-2.9991106563787175
1721374000178.0547,117,-4.355307543319801
1721374000188.004,118,-5.598230600428764
1721374000197.9531,119,-6.715188589844162
1721374000207.9023,120,-7.69723009351309
1721374000217.8513,121,-8.539051389989229
1721374000227.8003,122,-9.238781996061961
1721374000237.7498,123,-9.7976934200488
1721374000247.699,124,-10.219863598221052
1721374000257.6482,125,-10.51180496830326
1721374000267.5974,126,-10.682061298280725
1721374000277.5466,127,-10.740800771311507
1721374000287.4956,128,-10.69944516020005
1721374000297.4448,129,-10.570350288158203
1721374000307.394,130,-10.366511674941007
1721374000317.3433,131,-10.101257579977675
1721374000327.2925,132,-9.78791845760009
1721374000337.2417,133,-9.439490729197303
1721374000347.191,134,-9.06831705499017
1721374000357.14,135,-8.685791661169812
1721374000367.089,136,-8.302087386390284
1721374000377.0383,137,-7.925901877600839
1721374000386.9875,138,-7.5642328842574384
1721374000396.9368,139,-7.222207468773381
1721374000406.886,140,-6.902989418849196
1721374000416.8352,141,-6.6077702852085425
1721374000426.7844,142,-6.335836218792317
1721374000436.7334,143,-6.084706045641921
1721374000446.6826,144,-5.850337453913951
1721374000456.6318,145,-5.627385283322123
1721374000466.5813,146,-5.409479197066367
1721374000476.5305,147,-5.189484374963518
1721374000486.4795,148,-4.959722978225087
1721374000496.4287,149,-4.712158601008048
1721374000506.3777,150,-4.438566192689125
1721374000516.327,151,-4.130709670239792
1721374000526.276,152,-3.7805344077437746
1721374000536.225,153,-3.380375002349471
1721374000546.1746,154,-2.9231822066226316
1721374000556.1238,155,-2.402777857669807
1721374000566.073,156,-1.8141502401579022
1721374000576.022,157,-1.15378551182853
1721374000585.9712,158,-0.41999130663701967
1721374000595.9204,159,0.3868424968407002
1721374000605.8696,160,1.2640607828871393
1721374000615.8188,161,2.206618842582356
1721374000625.768,162,3.2070114876233298
1721374000635.7173,163,4.255275098104846
1721374000645.6665,164,5.339074810356853
1721374000655.6155,165,6.443869449300042
1721374000665.5647,166,7.5531462011408
1721374000675.514,167,8.648723844538084
1721374000685.4631,168,9.711123969411279
1721374000695.4124,169,10.720014902027462
1721374000705.3616,170,11.654733167335056
1721374000715.3108,171,12.494861665831602
1721374000725.2598,172,13.220822426090306
1721374000735.209,173,13.814462464575078
1721374000745.1582,174,14.259639914834388
1721374000755.1074,175,14.54280701431442
1721374000765.0566,176,14.653555435367188
1721374000775.006,177,14.585074957419291
1721374000784.955,178,14.334484901054626
1721374000794.904,179,13.903020956773565
1721374000804.8533,180,13.296078022688377
1721374000814.8025,181,12.523105205131289
1721374000824.7517,182,11.597344055292137
1721374000834.7007,183,10.535423417549302
1721374000844.65,184,9.356853219034589
1721374000854.5994,185,8.08346087456054
1721374000864.5486,186,6.738793554992065
1721374000874.4976,187,5.347492074938029
1721374000884.4468,188,3.9346365287786305
1721374000894.396,189,2.5250667696839626
1721374000904.3452,190,1.1426885757214365
1721374000914.2944,191,-0.1902111420349622
1721374000924.2437,192,-1.4535985739357282
1721374000934.1929,193,-2.630223961103389
1721374000944.1418,194,-3.706010238466075
1721374000954.0913,195,-4.6702921717929815
1721374000964.0403,196,-5.5159249119389075
1721374000973.9895,197,-6.239284823229422
1721374000983.9387,198,-6.840170453051122
1721374000993.888,199,-7.321601227840091
1721374001003.8372,200,-7.689513665981606
1721374001013.786,201,-7.952359825387657
1721374001023.7354,202,-8.120627197054471
1721374001033.6846,203,-8.206315237982023
1721374001043.6338,204,-8.222392543628873
1721374001053.583,205,-8.182238258939543
1721374001063.5322,206,-8.099081900129951
1721374001073.4814,207,-7.98547909655526
1721374001083.4304,208,-7.852858196408044
1721374001093.3796,209,-7.711152502376236
1721374001103.3289,210,-7.568518344570246
1721374001113.278,211,-7.431133881780844
1721374001123.2273,212,-7.303079680325679
1721374001133.1765,213,-7.186314734569171
1721374001143.1255,214,-7.080757239144948
1721374001153.075,215,-6.984458205030497
1721374001163.024,216,-6.893848523495026
1721374001172.9731,217,-6.804046625331224
1721374001182.9224,218,-6.709211418345894
1721374001192.8716,219,-6.602920715598499
1721374001202.8208,220,-6.478560543241282
1721374001212.77,221,-6.32971330581021
1721374001222.7192,222,-6.150527696110875
1721374001232.6682,223,-5.936046099780709
1721374001242.6174,224,-5.6824544842366125
1721374001252.567,225,-5.387213477312211
1721374001262.516,226,-5.049047689861475
1721374001272.465,227,-4.667811154046734
1721374001282.4143,228,-4.244275830325372
1721374001292.3635,229,-3.7798846124919363
1721374001302.3125,230,-3.2764939276694536
1721374001312.2617,231,-2.7361303298246002
1721374001322.2107,232,-2.160785756003873
1721374001332.1602,233,-1.5522650451189748
1721374001342.1094,234,-0.9120902228228853
1721374001352.0586,235,-0.24146105286914318
1721374001362.0078,236,0.4587338331038505
1721374001371.957,237,1.1878570514050628
1721374001381.906,238,1.945402640501526
1721374001391.8552,239,2.7307969183023144
1721374001401.8044,240,3.5431040157280997
1721374001411.7537,241,4.380637781621142
1721374001421.703,242,5.240511614053838
1721374001431.652,243,6.118181311811608
1721374001441.6013,244,7.007040436037496
1721374001451.5503,245,7.898119611273448
1721374001461.4995,246,8.779930081861217
1721374001471.4487,247,9.63848227379646
1721374001481.398,248,10.45749998679785
1721374001491.3472,249,11.218838036375901
1721374001501.2964,250,11.903096559863267
1721374001511.2456,251,12.490399952619777
1721374001521.1946,252,12.961274980395197
1721374001531.1438,253,13.297549421708835
1721374001541.093,254,13.48320847728501
1721374001551.0422,255,13.505167225727483
1721374001560.9917,256,13.353927660970587
1721374001570.941,257,13.024091115436677
1721374001580.89,258,12.514702683085355
1721374001590.8389,259,11.82942128777648
1721374001600.788,260,10.976520996569405
1721374001610.7373,261,9.968720491328119
1721374001620.6863,262,8.82283040757642
1721374001630.6355,263,7.559225380823719
1721374001640.585,264,6.201167506976294
1721374001650.5342,265,4.774009151071807
1721374001660.4834,266,3.3043095524443453
1721374001670.4324,267,1.8189231566784545
1721374001680.3816,268,0.34412607142269214
1721374001690.3308,269,-1.0951714284759897
1721374001700.28,270,-2.4761031036955803
1721374001710.2292,271,-3.7784092411106034
1721374001720.1785,272,-4.984879389675256
1721374001730.1277,273,-6.0816629632437875
1721374001740.077,274,-7.058436239614391
1721374001750.026,275,-7.908433205905666
1721374001759.975,276,-8.628368580689505
1721374001769.9243,277,-9.218287180870528
1721374001779.8735,278,-9.68136321021513
1721374001789.8228,279,-10.023652557118462
1721374001799.772,280,-10.253781587802589
1721374001809.7207,281,-10.382550797574284
1721374001819.6702,282,-10.422441481673916
1721374001829.6194,283,-10.387028861704978
1721374001839.5686,284,-10.290328361175598
1721374001849.5178,285,-10.146128013469639
1721374001859.467,286,-9.967359160588579
1721374001869.4165,287,-9.765532198750831
1721374001879.3655,288,-9.550265173986665
1721374001889.3145,289,-9.328959132608905
1721374001899.2637,290,-9.10666173541043
1721374001909.213,291,-8.886109048412411
1721374001919.162,292,-8.667904383261593
1721374001929.111,293,-8.450793200800812
1721374001939.0603,294,-8.23199757498516
1721374001949.0098,295,-8.007580873140604
1721374001958.9587,296,-7.77282750635121
1721374001968.908,297,-7.522631449094769
1721374001978.8572,298,-7.25188645980701
1721374001988.8064,299,-6.9558667197793165
1721374001998.7556,300,-6.630577972682336
1721374002008.7048,301,-6.273052466729058
1721374002018.654,302,-5.881563908087133
1721374002028.603,303,-5.455739273153255
1721374002038.5522,304,-4.996543200094672
1721374002048.5017,305,-4.506128486751227
1721374002058.4507,306,-3.9875763440301912
1721374002068.4,307,-3.444568345650066
1721374002078.349,308,-2.881036302140178
1721374002088.2983,309,-2.300831738931373
1721374002098.2476,310,-1.707444413738852
1721374002108.1963,311,-1.1037870514363421
1721374002118.1458,312,-0.4920547499902487
1721374002128.095,313,0.12634052116770894
1721374002138.0442,314,0.750763598231817
1721374002147.9934,315,1.381279663970185
1721374002157.9426,316,2.0185129359142464
1721374002167.8918,317,2.663456491810581
1721374002177.8408,318,3.317252161624291
1721374002187.79,319,3.9809508010184
1721374002197.7393,320,4.655257994248854
1721374002207.6885,321,5.3402723520611115
1721374002217.6377,322,6.035225186753997
1721374002227.587,323,6.73823055131157
1721374002237.536,324,7.446055857126237
1721374002247.485,325,8.15392870993266
1721374002257.4343,326,8.855402395547516
1721374002267.3835,327,9.542301527118832
1721374002277.3328,328,10.204767236051014
1721374002287.282,329,10.831420809530961
1721374002297.2312,330,11.409646888031254
1721374002307.1804,331,11.925968867895483
1721374002317.1294,332,12.366484715352128
1721374002327.0786,333,12.717351114410274
1721374002337.0278,334,12.965313284384735
1721374002346.9773,335,13.098261119369873
1721374002356.9265,336,13.105769719847792
1721374002366.8755,337,12.979586369627274
1721374002376.8247,338,12.714053490169134
1721374002386.774,339,12.306466794790108
1721374002396.723,340,11.757355611538536
1721374002406.672,341,11.070670540514191
1721374002416.621,342,10.253865565431878
1721374002426.5706,343,9.317850728704967
1721374002436.5198,344,8.276790070135284
1721374002446.469,345,7.147738274539064
1721374002456.4182,346,5.95012375682785
1721374002466.3672,347,4.705090225116681
1721374002476.3164,348,3.4347264299127835
1721374002486.2656,349,2.1612443936121024
1721374002496.2148,350,0.9061787608323009
1721374002506.164,351,-0.3103348385959909
1721374002516.1133,352,-1.470160933096428
1721374002526.0625,353,-2.5576115640510144
1721374002536.0117,354,-3.559726262450195
1721374002545.9607,355,-4.4664021436641885
1721374002555.91,356,-5.270402163800413
1721374002565.8591,357,-5.967254286378585
1721374002575.8083,358,-6.555053205841499
1721374002585.7576,359,-7.034206816744122
1721374002595.7068,360,-7.407187131658771
1721374002605.656,361,-7.678313676055138
1721374002615.605,362,-7.853552460470624
1721374002625.5542,363,-7.940303614951518
1721374002635.5034,364,-7.947168098045029
1721374002645.4526,365,-7.883696021660898
1721374002655.402,366,-7.7601151361503025
1721374002665.3513,367,-7.587032510503192
1721374002675.3003,368,-7.375111764055923
1721374002685.2493,369,-7.13474365160031
1721374002695.1985,370,-6.875728414719075
1721374002705.1477,371,-6.606978976241303
1721374002715.0967,372,-6.336258246803179
1721374002725.046,373,-6.069976738342098
1721374002734.9954,374,-5.813069247710164
1721374002744.9446,375,-5.568940713547038
1721374002754.8936,376,-5.339453377753128
1721374002764.8428,377,-5.124937048335948
1721374002774.792,378,-4.924225340821193
1721374002784.7412,379,-4.734734326868224
1721374002794.6904,380,-4.552599833514073
1721374002804.6396,381,-4.372875238890816
1721374002814.5889,382,-4.189775243491405
1721374002824.5378,383,-3.99694675983831
1721374002834.4873,384,-3.7877518527801928
1721374002844.4363,385,-3.555551111041253
1721374002854.3855,386,-3.2939770659842353
1721374002864.3347,387,-2.997188263764934
1721374002874.284,388,-2.6600977531415273
1721374002884.2332,389,-2.278572866278536
1721374002894.1824,390,-1.8496044608957363
1721374002904.131,391,-1.3714440507988124
1721374002914.0806,392,-0.8437069290926485
1721374002924.0298,393,-0.2674410211685177
1721374002933.979,394,0.3548344233413045
1721374002943.9282,395,1.019115010323429
1721374002953.8774,396,1.7199238970777055
1721374002963.827,397,2.4503561662885796
1721374002973.7756,398,3.2021463639266443
1721374002983.7249,399,3.965738602344349
1721374002993.674,400,4.730354613100513
1721374003003.6233,401,5.484082632894311
1721374003013.5725,402,6.214011714725694
1721374003023.5215,403,6.9064126458102
1721374003033.4707,404,7.546957955062489
1721374003043.42,405,8.120993877220673
1721374003053.3691,406,8.613888047370304
1721374003063.3184,407,9.0114524118823
1721374003073.2676,408,9.300410568264486
1721374003083.2168,409,9.468874933752161
1721374003093.166,410,9.506812963414779
1721374003103.1152,411,9.406488505120796
1721374003113.0645,412,9.162860220199779
1721374003123.0134,413,8.773914363284467
1721374003132.9626,414,8.24090693670448
1721374003142.912,415,7.568492222825329
1721374003152.861,416,6.764726731511308
1721374003162.8103,417,5.840949326771226
1721374003172.7595,418,4.811543492851065
1721374003182.7087,419,3.6936001855353533
1721374003192.6577,420,2.5065050216720297
1721374003202.6067,421,1.271450266447121
1721374003212.5562,422,0.010856547577140661
1721374003222.5054,423,-1.2522883902741944
1721374003232.4546,424,-2.4951381927735388
1721374003242.4038,425,-3.6956972882581933
1721374003252.353,426,-4.8334854384101265
1721374003262.302,427,-5.890123249268522
1721374003272.2512,428,-6.849818443665355
1721374003282.2004,429,-7.699736981209539
1721374003292.1497,430,-8.430249460145667
1721374003302.0989,431,-9.035061689369028
1721374003312.048,432,-9.511248729365041
1721374003321.9973,433,-9.859198904703357
1721374003331.9463,434,-10.082460947876768
1721374003341.8955,435,-10.187491727480262
1721374003351.8447,436,-10.183308311156567
1721374003361.794,437,-10.081048847519693
1721374003371.7432,438,-9.893453922316398
1721374003381.6924,439,-9.634294606868636
1721374003391.6416,440,-9.317781525541067
1721374003401.5908,441,-8.95798356881637
1721374003411.5398,442,-8.568279268915216
1721374003421.489,443,-8.16086808769843
1721374003431.4382,444,-7.746367492695546
1721374003441.3877,445,-7.333510205598025
1721374003451.337,446,-6.9289529738981575
1721374003461.286,447,-6.537212025688326
1721374003471.235,448,-6.16073013823505
1721374003481.184,449,-5.800059266485436
1721374003491.1333,450,-5.454129607982793
1721374003501.0825,451,-5.120575937337035
1721374003511.0315,452,-4.796099968981696
1721374003520.981,453,-4.476847259823125
1721374003530.9302,454,-4.158757642154083
1721374003540.8794,455,-3.8378330607844533
1721374003550.8284,456,-3.5102880443728006
1721374003560.7776,457,-3.1725981302148707
1721374003570.7268,458,-2.821495327628429
1721374003580.676,459,-2.453949443597963
1721374003590.6252,460,-2.0671471204375074
1721374003600.5745,461,-1.6584723999568645
1721374003610.5237,462,-1.2254938012664345
1721374003620.473,463,-0.7659543824317628
1721374003630.422,464,-0.27775707098266117
1721374003640.371,465,0.24104977259988358
1721374003650.3203,466,0.7922671449059918
1721374003660.2695,467,1.3774952097380289
1721374003670.2188,468,1.9980112948934021
1721374003680.168,469,2.6545572309701977
1721374003690.1172,470,3.3470400093547257
1721374003700.0662,471,4.074179163378708
1721374003710.0154,472,4.833155936736453
1721374003719.9646,473,5.619318431173555
1721374003729.9138,474,6.425975607236108
1721374003739.863,475,7.244292513353123
1721374003749.8125,476,8.063291190242929
1721374003759.7617,477,8.869961744847574
1721374003769.7104,478,9.649491017677875
1721374003779.6597,479,10.385615984489077
1721374003789.609,480,11.061093083205028
1721374003799.558,481,11.658247502689429
1721374003809.507,482,12.15955742641955
1721374003819.4563,483,12.54824836326403
1721374003829.4058,484,12.808897402088842
1721374003839.355,485,12.928048368381479
1721374003849.304,486,12.894815550224997
1721374003859.2532,487,12.701438029835016
1721374003869.2024,488,12.343763038166278
1721374003879.1516,489,11.821659278768848
1721374003889.1008,490,11.139352178844003
1721374003899.05,491,10.305640997134196
1721374003908.9993,492,9.333937115674411
1721374003918.9482,493,8.242072759326986
1721374003928.8977,494,7.051866260957773
1721374003938.8467,495,5.788467395752969
1721374003948.796,496,4.479522717235224
1721374003958.745,497,3.1542091121118028
1721374003968.6943,498,1.842198483356183
1721374003978.6436,499,0.5726258442174332
1721374003988.5923,500,-0.6268763913609754
1721374003998.5415,501,-1.7310375991315072
1721374004008.491,502,-2.7176758010322164
1721374004018.4402,503,-3.568264435755853
1721374004028.3894,504,-4.268312488638543
1721374004038.3386,505,-4.807545782672903
1721374004048.2878,506,-5.17988863706289
1721374004058.2368,507,-5.383254424698
1721374004068.186,508,-5.4191761326534875
1721374004078.1353,509,-5.292332158626567
1721374004088.0845,510,-5.010025784787257
1721374004098.0337,511,-4.581658654748572
1721374004107.983,512,-4.018217552452616
1721374004117.932,513,-3.331787142585617
1721374004127.881,514,-2.5351070439282437
1721374004137.8303,515,-1.6411974361723218
1721374004147.7795,516,-0.6630780307743043
1721374004157.7288,517,0.38640396075261507
1721374004167.678,518,1.494639815083623
1721374004177.6272,519,2.6492344527636056
1721374004187.5764,520,3.837902295051269
1721374004197.5256,521,5.048288380588553
1721374004207.4746,522,6.267721850264757
1721374004217.4238,523,7.482915615622243
1721374004227.373,524,8.679630028251175
1721374004237.3225,525,9.842328907715554
1721374004247.2715,526,10.953880129395763
1721374004257.2207,527,11.995369422707128
1721374004267.17,528,12.946079440095987
1721374004277.119,529,13.78364718813455
1721374004287.068,530,14.48438603061522
1721374004297.017,531,15.02375774026518
1721374004306.9666,532,15.376989318372988
1721374004316.9158,533,15.51982603108606
1721374004326.865,534,15.429395084462616
1721374004336.8142,535,15.085144072645921
1721374004346.7634,536,14.469823862355938
1721374004356.7124,537,13.57049135339593
1721374004366.6616,538,12.379500505434429
1721374004376.6108,539,10.895433868808844
1721374004386.56,540,9.123912080661807
1721374004396.5093,541,7.078217909286262
1721374004406.4585,542,4.779683122735134
1721374004416.4077,543,2.2577878542816
1721374004426.3567,544,-0.4500847686103303
1721374004436.306,545,-3.29927912420349
1721374004446.2551,546,-6.238888277977072
1721374004456.2043,547,-9.213148275711092
1721374004466.1536,548,-12.16316955331879
1721374004476.1028,549,-15.028940695412045
1721374004486.052,550,-17.751505547989996
1721374004496.001,551,-20.275182813718164
1721374004505.9502,552,-22.549683336545584
1721374004515.8994,553,-24.531987579140427
1721374004525.8486,554,-26.187853185904075
1721374004535.798,555,-27.492841844907126
1721374004545.7473,556,-28.432818106696875
1721374004555.6963,557,-29.003953163006265
1721374004565.6455,558,-29.21230618764482
1721374004575.5945,559,-29.0730478029676
1721374004585.5437,560,-28.609376733033574
1721374004595.493,561,-27.851192280113704
1721374004605.442,562,-26.833603764425185
1721374004615.3914,563,-25.595358676863498
1721374004625.3406,564,-24.177265759097995
1721374004635.2898,565,-22.6206899415173
1721374004645.2388,566,-20.966193637270727
1721374004655.188,567,-19.25238356177517
1721374004665.1372,568,-17.51499230494619
1721374004675.0864,569,-15.786193958110754
1721374004685.0356,570,-14.09413939823008
1721374004694.9849,571,-12.462686322586483
1721374004704.934,572,-10.911278179944622
1721374004714.8833,573,-9.454912908865126
1721374004724.8325,574,-8.104152974283975
1721374004734.7815,575,-6.865156443893702
1721374004744.7307,576,-5.739746376967236
1721374004754.68,577,-4.725567131071887
1721374004764.6292,578,-3.8163784264695146
1721374004774.5784,579,-3.002516560912301
1721374004784.527,580,-2.271534707698832
1721374004794.4766,581,-1.6090182628501637
1721374004804.4258,582,-0.9995348978697611
1721374004814.375,583,-0.42763612749398716
1721374004824.3242,584,0.12119071863385322
1721374004834.2734,585,0.6597119879788149
1721374004844.223,586,1.1983464879972452
1721374004854.172,587,1.7448046289768595
1721374004864.1208,588,2.3039575911774426
1721374004874.07,589,2.877901119193642
1721374004884.0193,590,3.466172227024401
1721374004893.9685,591,4.066074856951989
1721374004903.9175,592,4.67307471183357
1721374004913.8667,593,5.281235266964814
1721374004923.8162,594,5.883668736915793
1721374004933.7651,595,6.472968975866526
1721374004943.7144,596,7.04160245728601
1721374004953.6636,597,7.582256429927136
1721374004963.6128,598,8.088149674221116
1721374004973.562,599,8.553298207123815
1721374004983.5112,600,8.972726135050799
1721374004993.4604,601,9.34262943490707
1721374005003.4094,602,9.660510980075166
1721374005013.3586,603,9.925294959170406
1721374005023.308,604,10.137416239142624
1721374005033.257,605,10.298875842438813
1721374005043.2063,606,10.413252951415833
1721374005053.1555,607,10.485668471564997
1721374005063.1047,608,10.522701701153228
1721374005073.054,609,10.532260343582555
1721374005083.0027,610,10.523398809734955
1721374005092.952,611,10.506077857936065
1721374005102.9014,612,10.490857861313982
1721374005112.8506,613,10.488522614752736
1721374005122.7998,614,10.509646968198041
1721374005132.749,615,10.56413488787291
1721374005142.6982,616,10.660753837667832
1721374005152.6472,617,10.806687365008333
1721374005162.5964,618,11.007121122755763
1721374005172.5457,619,11.264866994061808
1721374005182.4949,620,11.580028780272265
1721374005192.444,621,11.94971860414474
1721374005202.3933,622,12.367833876774649
1721374005212.3423,623,12.824907188441236
1721374005222.2915,624,13.308052494076527
1721374005232.2407,625,13.801044335547244
1721374005242.19,626,14.284575437329574
1721374005252.1392,627,14.736728381795663
1721374005262.0884,628,15.133661323695902
1721374005272.0376,629,15.45046856149886
1721374005281.9868,630,15.662160864377471
1721374005291.9358,631,15.74471436650354
1721374005301.885,632,15.67614133272194
1721374005311.8342,633,15.43753056569003
1721374005321.7834,634,15.013997354582123
1721374005331.733,635,14.395487540932775
1721374005341.682,636,13.577396976291377
1721374005351.631,637,12.560982923329782
1721374005361.5803,638,11.353550244596176
1721374005371.5293,639,9.96839374848812
1721374005381.4785,640,8.42447586582258
1721374005391.4275,641,6.745832854199201
1721374005401.377,642,4.9607432153609965
1721374005411.3262,643,3.100731162314464
1721374005421.2754,644,1.1994794182247164
1721374005431.2246,645,-0.7082989651937939
1721374005441.1736,646,-2.5879958796422633
1721374005451.1228,647,-4.40621438894035
1721374005461.072,648,-6.131799432733074
1721374005471.0212,649,-7.736741028440647
1721374005480.9705,650,-9.19690845689842
1721374005490.9197,651,-10.492598680108896
1721374005500.869,652,-11.608903697206513
1721374005510.818,653,-12.535906829583535
1721374005520.767,654,-13.268715627128634
1721374005530.7163,655,-13.807341114331614
1721374005540.6655,656,-14.156440032249746
1721374005550.6147,657,-14.324945983512398
1721374005560.564,658,-14.32561272905023
1721374005570.5132,659,-14.174468877886294
1721374005580.4624,660,-13.890172252432178
1721374005590.4114,661,-13.493274387463122
1721374005600.3606,662,-13.00541637731268
1721374005610.3098,663,-12.448464670593651
1721374005620.259,664,-11.843611894766815
1721374005630.2085,665,-11.210514104662765
1721374005640.1577,666,-10.566553952768997
1721374005650.1067,667,-9.926300227927628
1721374005660.0557,668,-9.301204756080718
1721374005670.005,669,-8.69953234168338
1721374005679.954,670,-8.126468022905252
1721374005689.9033,671,-7.584335807728883
1721374005699.8523,672,-7.072896621727787
1721374005709.8018,673,-6.589718240907754
1721374005719.751,674,-6.13060230815184
1721374005729.7,675,-5.690036805794262
1721374005739.6492,676,-5.261639601533964
1721374005749.5984,677,-4.838570833388389
1721374005759.5476,678,-4.413903881584253
1721374005769.4968,679,-3.9809406508595275
1721374005779.446,680,-3.533448620834052
1721374005789.3953,681,-3.065808943730059
1721374005799.3445,682,-2.5730928976060965
1721374005809.2937,683,-2.0511082380566013
1721374005819.243,684,-1.496462550134997
1721374005829.192,685,-0.9066707477671762
1721374005839.141,686,-0.2803047520483856
1721374005849.0903,687,0.38282942827568694
1721374005859.0396,688,1.0814981671050339
1721374005868.9888,689,1.8128377851107407
1721374005878.9375,690,2.57215984560582
1721374005888.887,691,3.352801859273133
1721374005898.8362,692,4.146074319438901
1721374005908.7854,693,4.941339075191314
1721374005918.7346,694,5.72621715669828
1721374005928.6838,695,6.486892902260172
1721374005938.6333,696,7.208471633350018
1721374005948.582,697,7.875361839200262
1721374005958.5312,698,8.471677060691004
1721374005968.4805,699,8.981665405771539
1721374005978.4297,700,9.390168928933607
1721374005988.379,701,9.683105189269146
1721374005998.328,702,9.847958739271913
1721374006008.277,703,9.87426684542164
1721374006018.2263,704,9.754077930833892
1721374006028.1755,705,9.482351809392604
1721374006038.1248,706,9.057263716398891
1721374006048.074,707,8.480383490780246
1721374006058.0232,708,7.756720494096944
1721374006067.9724,709,6.894633361323259
1721374006077.9216,710,5.90560691581738
1721374006087.8708,711,4.803912960612118
1721374006097.8198,712,3.6061871221322948
1721374006107.769,713,2.330953360848653
1721374006117.7185,714,0.9981199637145498
1721374006127.6675,715,-0.371532159418036
1721374006137.6167,716,-1.7568549928792674
1721374006147.566,717,-3.136828067240757
1721374006157.5151,718,-4.491033326806319
1721374006167.464,719,-5.800092882903893
1721374006177.413,720,-7.046055025223391
1721374006187.3623,721,-8.212718570168152
1721374006197.3118,722,-9.28588558885877
1721374006207.261,723,-10.253535255868826
1721374006217.2102,724,-11.10592309380178
1721374006227.1594,725,-11.83562518920861
1721374006237.1084,726,-12.437546393565757
1721374006247.0576,727,-12.908888696254971
1721374006257.0068,728,-13.249056906963006
1721374006266.956,729,-13.459481144273271
1721374006276.9053,730,-13.543350371451092
1721374006286.8545,731,-13.505278415296313
1721374006296.8037,732,-13.350956308165555
1721374006306.7527,733,-13.086843298870253
1721374006316.702,734,-12.71991116446504
1721374006326.6511,735,-12.257434321244055
1721374006336.6003,736,-11.706826481384093
1721374006346.5496,737,-11.075529518512775
1721374006356.4988,738,-10.370951605996677
1721374006366.448,739,-9.600450086894558
1721374006376.3972,740,-8.771361182785578
1721374006386.3462,741,-7.891073435138705
1721374006396.2954,742,-6.967128635344898
1721374006406.2446,743,-6.0073271897501215
1721374006416.1938,744,-5.01980780930305
1721374006426.1433,745,-4.013071499646485
1721374006436.0923,746,-2.9959410098048123
1721374006446.0415,747,-1.9774715926014008
1721374006455.9905,748,-0.966837304522638
1721374006465.9397,749,0.026795812387279034
1721374006475.889,750,0.9944267248365614
1721374006485.838,751,1.9274387742125398
1721374006495.7874,752,2.8178919977224757
1721374006505.7366,753,3.6588594629356033
1721374006515.6858,754,4.444759575124068
1721374006525.635,755,5.171646945967572
1721374006535.584,756,5.837439577700763
1721374006545.5332,757,6.442061774247026
1721374006555.4824,758,6.987481401784384
1721374006565.4316,759,7.47763058671832
1721374006575.3809,760,7.918212830250019
1721374006585.33,761,8.316401855667015
1721374006595.2793,762,8.680432019756829
1721374006605.2285,763,9.019089433226151
1721374006615.1775,764,9.341142383176306
1721374006625.1267,765,9.654764434979118
1721374006635.076,766,9.966984075399484
1721374006645.0251,767,10.283178579727375
1721374006654.9744,768,10.606638356638095
1721374006664.9236,769,10.93822472876301
1721374006674.8726,770,11.276120432784174
1721374006684.8218,771,11.615673156702394
1721374006694.771,772,11.949364087336532
1721374006704.7202,773,12.266949407463441
1721374006714.6694,774,12.555802937190935
1721374006724.619,775,12.801450774642037
1721374006734.568,776,12.988254652319519
1721374006744.5168,777,13.100182218651707
1721374006754.466,778,13.121600478817712
1721374006764.4153,779,13.038041121443735
1721374006774.3645,780,12.836908522275513
1721374006784.3137,781,12.508110265349139
1721374006794.2627,782,12.044574553879471
1721374006804.2122,783,11.442610274568512
1721374006814.1614,784,10.702093927164405
1721374006824.1104,785,9.826508740897614
1721374006834.0596,786,8.822873144794086
1721374006844.0088,787,7.70158278525419
1721374006853.958,788,6.47617764292176
1721374006863.9072,789,5.163031984423891
1721374006873.8564,790,3.7809492570864234
1721374006883.8057,791,2.3506506267385254
1721374006893.7546,792,0.8941781224251122
1721374006903.704,793,-0.5657497978971677
1721374006913.6533,794,-2.006409084190575
1721374006923.6023,795,-3.4057530196270727
1721374006933.5515,796,-4.743067847290987
1721374006943.5007,797,-5.9995463326333835
1721374006953.45,798,-7.158740678047513
1721374006963.3987,799,-8.206875672333384
1721374006973.348,800,-9.133019393712171
1721374006983.2974,801,-9.929138194937213
1721374006993.2466,802,-10.590082237387115
1721374007003.1958,803,-11.113529502255616
1721374007013.145,804,-11.499887448799543
1721374007023.0942,805,-11.752147735254253
1721374007033.0437,806,-11.875696262300872
1721374007042.9924,807,-11.878078279514485
1721374007052.9417,808,-11.768719760469548
1721374007062.8909,809,-11.558616619341498
1721374007072.84,810,-11.260002831191223
1721374007082.7893,811,-10.885995596546488
1721374007092.7383,812,-10.450214942125708
1721374007102.6875,813,-9.966394037674505
1721374007112.6367,814,-9.448014688545419
1721374007122.586,815,-8.90800205940503
1721374007132.5352,816,-8.358489185508073
1721374007142.4844,817,-7.810627640794601
1721374007152.4336,818,-7.2744089542015615
1721374007162.3828,819,-6.75848819680347
1721374007172.332,820,-6.270031777599613
1721374007182.281,821,-5.814607154662436
1721374007192.2302,822,-5.396108249850818
1721374007202.1794,823,-5.016701801293934
1721374007212.129,824,-4.6767851088865235
1721374007222.078,825,-4.3749450201509035
1721374007232.027,826,-4.107906071744252
1721374007241.9763,827,-3.8704701427463624
1721374007251.9253,828,-3.655477035091567
1721374007261.8745,829,-3.453834169188812
1721374007271.8235,830,-3.254659358319156
1721374007281.7727,831,-3.0455543590785115
1721374007291.7222,832,-2.812996793310949
1721374007301.6714,833,-2.5428208800618615
1721374007311.6206,834,-2.2207536584535474
1721374007321.5698,835,-1.8329802472443073
1721374007331.5188,836,-1.366722116131091
1721374007341.468,837,-0.810816650671027
1721374007351.4172,838,-0.1562899296760402
1721374007361.3665,839,0.6030813831472577
1721374007371.3157,840,1.470230885951762
1721374007381.265,841,2.444312757214767
1721374007391.214,842,3.520298256201553
1721374007401.163,843,4.68869823711187
1721374007411.1123,844,5.935447821534481
1721374007421.0615,845,7.241985009851294
1721374007431.0107,846,8.585551585629304
1721374007440.96,847,9.93973018064171
1721374007450.9092,848,11.275201421041807
1721374007460.8584,849,12.560670933602292
1721374007470.8074,850,13.763897803928044
1721374007480.7566,851,14.852765731295726
1721374007490.7058,852,15.796360120366382
1721374007500.655,853,16.566024756360974
1721374007510.6042,854,17.136368656269273
1721374007520.5537,855,17.486191324863082
1721374007530.5027,856,17.599299767870868
1721374007540.452,857,17.46519406907624
1721374007550.401,858,17.079585799256844
1721374007560.35,859,16.444691749674707
1721374007570.2993,860,15.569244366298538
1721374007580.2483,861,14.468192968027537
1721374007590.1978,862,13.162116844758044
1721374007600.147,863,11.67640574203174
1721374007610.0962,864,10.040274842166124
1721374007620.0452,865,8.285682944485355
1721374007629.9944,866,6.446223749361944
1721374007639.9436,867,4.556045118740413
1721374007649.8928,868,2.6488164168898605
1721374007659.842,869,0.7567476613010358
1721374007669.7913,870,-1.0903111308037978
1721374007679.7405,871,-2.865634759134953
1721374007689.6897,872,-4.546204147394945
1721374007699.639,873,-6.113085074324129
1721374007709.588,874,-7.551611364132636
1721374007719.537,875,-8.85139413041263
1721374007729.4863,876,-10.006174577396564
1721374007739.4355,877,-11.013532871386447
1721374007749.3848,878,-11.87448198272609
1721374007759.334,879,-12.592994821509372
1721374007769.283,880,-13.175509505705373
1721374007779.2322,881,-13.630436883067079
1721374007789.1814,882,-13.967678692495245
1721374007799.1306,883,-14.198168905949665
1721374007809.0798,884,-14.333463951670547
1721374007819.0293,885,-14.38540062135934
1721374007828.9785,886,-14.365813056440224
1721374007838.9272,887,-14.28628662748113
1721374007848.8765,888,-14.15793693398966
1721374007858.8257,889,-13.991209267370886
1721374007868.775,890,-13.795687402983779
1721374007878.724,891,-13.579899711170462
1721374007888.673,892,-13.351124752380944
1721374007898.6226,893,-13.115217871960116
1721374007908.5715,894,-12.87648808733536
1721374007918.5208,895,-12.63764001325024
1721374007928.47,896,-12.399773421037272
1721374007938.4192,897,-12.162423352261097
1721374007948.3684,898,-11.923624134772812
1721374007958.3176,899,-11.67998944093827
1721374007968.2668,900,-11.426816682417622
1721374007978.2158,901,-11.158225649826903
1721374007988.165,902,-10.867322500744867
1721374007998.1145,903,-10.546371535287243
1721374008008.0637,904,-10.186969800184617
1721374008018.0127,905,-9.780227261781517
1721374008027.962,906,-9.31695473672811
1721374008037.9111,907,-8.787877132784889
1721374008047.8604,908,-8.183900637367607
1721374008057.809,909,-7.4964276541339965
1721374008067.7583,910,-6.717669788398661
1721374008077.7078,911,-5.8409251099887625
1721374008087.657,912,-4.860837391746267
1721374008097.6062,913,-3.7736734532106695
1721374008107.5554,914,-2.5776324921242035
1721374008117.5046,915,-1.2731728696681293
1721374008127.4536,916,0.13666608632961508
1721374008137.4028,917,1.6459578275437416
1721374008147.352,918,3.245609018456318
1721374008157.3013,919,4.923145858812182
1721374008167.2505,920,6.662629381542129
1721374008177.1997,921,8.444752266409148
1721374008187.1487,922,10.247131699553137
1721374008197.098,923,12.04477760196261
1721374008207.047,924,13.810702579519505
1721374008216.9963,925,15.516641122339005
1721374008226.9456,926,17.133849131391397
1721374008236.8948,927,18.63395464508079
1721374008246.844,928,19.989822057969864
1721374008256.7932,929,21.176387895999582
1721374008266.7424,930,22.171436817415177
1721374008276.6914,931,22.956292939446406
1721374008286.6406,932,23.5163912930019
1721374008296.5898,933,23.841689669387303
1721374008306.5393,934,23.92690290179333
1721374008316.4883,935,23.771572301472464
1721374008326.4375,936,23.379993150692364
1721374008336.3867,937,22.761015386058276
1721374008346.3357,938,21.92772523477841
1721374008356.285,939,20.89701134200028
1721374008366.234,940,19.68902161864001
1721374008376.183,941,18.32653120851837
1721374008386.1326,942,16.834251410368193
1721374008396.0818,943,15.238104277072207
1721374008406.031,944,13.564488852087097
1721374008415.98,945,11.839582825172185
1721374008425.9292,946,10.08872972098709
1721374008435.8784,947,8.33593895401088
1721374008445.8276,948,6.603495110449106
1721374008455.7769,949,4.911650116539674
1721374008465.726,950,3.278361609894484
1721374008475.6753,951,1.7190593030149715
1721374008485.6245,952,0.2464602330809716
1721374008495.5735,953,-1.1295347766950514
1721374008505.5227,954,-2.4018592135114427
1721374008515.472,955,-3.566228687080413
1721374008525.4211,956,-4.621020754999469
1721374008535.3704,957,-5.567081301051485
1721374008545.3196,958,-6.4074765622837715
1721374008555.2688,959,-7.1472379813610765
1721374008565.2178,960,-7.793138578785396
1721374008575.167,961,-8.35349505358498
1721374008585.1162,962,-8.83795174109833
1721374008595.0654,963,-9.257206357048481
1721374008605.0146,964,-9.622666581264298
1721374008614.964,965,-9.946047783036782
1721374008624.913,966,-10.238932327933814
1721374008634.862,967,-10.512316365963958
1721374008644.8113,968,-10.776167238247186
1721374008654.7605,969,-11.039002208059228
1721374008664.7097,970,-11.307491373663744
1721374008674.6587,971,-11.586099939978942
1721374008684.6082,972,-11.876805657448458
1721374008694.5574,973,-12.178932325500275
1721374008704.5063,974,-12.489121991317154
1721374008714.4556,975,-12.801438418497234
1721374008724.4048,976,-13.107578315368942
1721374008734.354,977,-13.397175287483874
1721374008744.3032,978,-13.658192933296093
1721374008754.2524,979,-13.877396198061625
1721374008764.2017,980,-14.040871701440395
1721374008774.151,981,-14.134560130788264
1721374008784.1,982,-14.14476733133892
1721374008794.0493,983,-14.05862168264279
1721374008803.9983,984,-13.864449842711965
1721374008813.9475,985,-13.552064694961413
1721374008823.8967,986,-13.112988961611007
1721374008833.846,987,-12.540649223086657
1721374008843.7952,988,-11.830560473022379
1721374008853.744,989,-10.980506773266605
1721374008863.6934,990,-9.990724720915114
1721374008873.6426,991,-8.86409607318171
1721374008883.5918,992,-7.606345038405562
1721374008893.541,993,-6.226221253644458
1721374008903.4902,994,-4.735636748465475
1721374008913.4397,995,-3.149722853567383
1721374008923.3884,996,-1.4867776165074726
1721374008933.3376,997,0.23192493201950629
1721374008943.2869,998,1.982484565843864
1721374008953.236,999,3.738879479933578
1721374008963.1853,1000,5.473593374091532
1721374008973.1345,1001,7.1583193376266
1721374008983.0835,1002,8.76470110213833
1721374008993.033,1003,10.265091347834353
1721374009002.982,1004,11.63331991551905
1721374009012.9312,1005,12.845452742197795
1721374009022.8804,1006,13.880498935909031
1721374009032.8296,1007,14.721024894560225
1721374009042.7788,1008,15.35365708582406
1721374009052.728,1009,15.769464261161572
1721374009062.6772,1010,15.96420471463591
1721374009072.6262,1011,15.938425317124167
1721374009082.5754,1012,15.69740337245506
1721374009092.525,1013,15.25092250129174
1721374009102.474,1014,14.612881504200264
1721374009112.423,1015,13.800755637580238
1721374009122.3723,1016,12.83495217864698
1721374009132.3215,1017,11.738116855365611
1721374009142.2705,1018,10.534441286148772
1721374009152.2195,1019,9.248991654285126
1721374009162.1687,1020,7.907058404683983
1721374009172.1182,1021,6.5335407783574935
1721374009182.0674,1022,5.152400192176819
1721374009192.0166,1023,3.7862047067699707
1721374009201.9658,1024,2.455755181997448
1721374009211.9148,1025,1.1797687858829307
1721374009221.864,1026,-0.025398233852850817
1721374009231.8132,1027,-1.1459935880508783
1721374009241.7625,1028,-2.1710664096373766
1721374009251.7117,1029,-3.0926004097813964
1721374009261.661,1030,-3.9055802168429143
1721374009271.61,1031,-4.608005620239591
1721374009281.559,1032,-5.200861199734235
1721374009291.5083,1033,-5.688027893419822
1721374009301.4575,1034,-6.076104975822907
1721374009311.4067,1035,-6.37410919284469
1721374009321.356,1036,-6.593044984634992
1721374009331.3052,1037,-6.745377176922211
1721374009341.2544,1038,-6.844447141450064
1721374009351.2036,1039,-6.903854388002259
1721374009361.1526,1040,-6.936818008760819
1721374009371.1018,1041,-6.9555524315373125
1721374009381.051,1042,-6.970708890522466
1721374009391.0002,1043,-6.9909210444845815
1721374009400.9497,1044,-7.022463233215362
1721374009410.8987,1045,-7.069018194434619
1721374009420.848,1046,-7.131567608697095
1721374009430.7969,1047,-7.2084341566074475
1721374009440.746,1048,-7.295489289550259
1721374009450.6953,1049,-7.386501362157564
1721374009460.6443,1050,-7.473567823065124
1721374009470.5935,1051,-7.547579853598042
1721374009480.543,1052,-7.598693014303757
1721374009490.4922,1053,-7.616787526940712
1721374009500.4414,1054,-7.591893690843728
1721374009510.3904,1055,-7.514559537988945
1721374009520.3396,1056,-7.376158946253532
1721374009530.2888,1057,-7.169156975793656
1721374009540.238,1058,-6.887343663288218
1721374009550.1873,1059,-6.526022002184471
1721374009560.1365,1060,-6.0821198139101575
1721374009570.0857,1061,-5.554214301441842
1721374009580.035,1062,-4.942494452151061
1721374009589.984,1063,-4.248697928336473
1721374009599.933,1064,-3.4760434218558776
1721374009609.8823,1065,-2.6291679594348065
1721374009619.8315,1066,-1.7140741065347944
1721374009629.7808,1067,-0.7380795780013218
1721374009639.73,1068,0.29024389519159877
1721374009649.679,1069,1.361139787838328
1721374009659.6282,1070,2.463730479131671
1721374009669.5774,1071,3.586076409245321
1721374009679.5266,1072,4.715243905115945
1721374009689.4758,1073,5.837387216870796
1721374009699.425,1074,6.937849785401456
1721374009709.3745,1075,8.001302529258068
1721374009719.3232,1076,9.011936390420692
1721374009729.2725,1077,9.953711257376998
1721374009739.2217,1078,10.810652541422709
1721374009749.171,1079,11.567181108367691
1721374009759.12,1080,12.20845937127012
1721374009769.069,1081,12.720748131746499
1721374009779.0186,1082,13.09179120349929
1721374009788.9678,1083,13.311247521205933
1721374009798.9167,1084,13.371162501252707
1721374009808.866,1085,13.266437691992541
1721374009818.8152,1086,12.995247174677498
1721374009828.7644,1087,12.559361026610832
1721374009838.7136,1088,11.964348950259629
1721374009848.6628,1089,11.219636384490357
1721374009858.612,1090,10.338383596552713
1721374009868.561,1091,9.337177066289213
1721374009878.5105,1092,8.23555616124502
1721374009888.4597,1093,7.055417497525533
1721374009898.4087,1094,5.820336214881142
1721374009908.358,1095,4.554831584658716
1721374009918.3071,1096,3.283591753475909
1721374009928.2563,1097,2.0306729804083012
1721374009938.205,1098,0.8187159954970088
1721374009948.1543,1099,-0.33175091719010663
1721374009958.1038,1100,-1.4028643513746366
1721374009968.053,1101,-2.3798162201151807
1721374009978.0022,1102,-3.251096756417415
1721374009987.9514,1103,-4.008618590633108
1721374009997.9006,1104,-4.647752247839176
1721374010007.85,1105,-5.167287873370394
1721374010017.7988,1106,-5.569309909184482
1721374010027.748,1107,-5.858959695151781
1721374010037.6973,1108,-6.04408118227733
1721374010047.6465,1109,-6.134774391145499
1721374010057.5957,1110,-6.1428892710643455
1721374010067.545,1111,-6.081480936625634
1721374010077.494,1112,-5.964239223009678
1721374010087.443,1113,-5.804909460170785
1721374010097.3923,1114,-5.616733447587188
1721374010107.3416,1115,-5.411957458462842
1721374010117.2908,1116,-5.201463903460339
1721374010127.24,1117,-4.994561005739993
1721374010137.1892,1118,-4.798914932030471
1721374010147.1384,1119,-4.620575033987255
1721374010157.0874,1120,-4.4640479018016235
1721374010167.0366,1121,-4.332393160053102
1721374010176.9858,1122,-4.227320505295731
1721374010186.9353,1123,-4.149273175415857
1721374010196.8845,1124,-4.097499764175017
1721374010206.8335,1125,-4.070131161159415
1721374010216.7827,1126,-4.064275128358292
1721374010226.732,1127,-4.076127275398743
1721374010236.681,1128,-4.101091553075037
1721374010246.63,1129,-4.133906570203804
1721374010256.579,1130,-4.168779283774536
1721374010266.5286,1131,-4.199527619392104
1721374010276.4778,1132,-4.21972669236274
1721374010286.427,1133,-4.222849745959841
1721374010296.3762,1134,-4.202401459586752
1721374010306.3252,1135,-4.152049733582397
1721374010316.2744,1136,-4.065762098129225
1721374010326.2236,1137,-3.9379469774234455
1721374010336.1729,1138,-3.7636003946664274
1721374010346.122,1139,-3.5384620296419103
1721374010356.0713,1140,-3.2591701698029323
1721374010366.0205,1141,-2.9233825004147405
1721374010375.9695,1142,-2.5298330011111774
1721374010385.9187,1143,-2.07832144992587
1721374010395.868,1144,-1.569657987185393
1721374010405.8171,1145,-1.0056040590208302
1721374010415.7664,1146,-0.3888511240053134
1721374010425.7156,1147,0.2769426741859311
1721374010435.6648,1148,0.987059188110643
1721374010445.6138,1149,1.735589783180305
1721374010455.563,1150,2.515307065419676
1721374010465.5122,1151,3.31757981875881
1721374010475.4614,1152,4.132347609087113
1721374010485.4106,1153,4.94815088547032
1721374010495.36,1154,5.75221814179639
1721374010505.309,1155,6.530628610753092
1721374010515.2583,1156,7.26856766810618
1721374010525.2073,1157,7.950666852760544
1721374010535.1565,1158,8.561399163453965
1721374010545.1057,1159,9.085506348448362
1721374010555.0547,1160,9.508453478077593
1721374010565.0042,1161,9.816909800466043
1721374010574.9534,1162,9.99924141906844
1721374010584.9026,1163,10.0459915502698
1721374010594.8516,1164,9.95033007970966
1721374010604.8008,1165,9.708457504388324
1721374010614.75,1166,9.319930983356961
1721374010624.6992,1167,8.78786293579624
1721374010634.6484,1168,8.118953239732011
1721374010644.5977,1169,7.323343945360671
1721374010654.5469,1170,6.414307412419911
1721374010664.4958,1171,5.407793867384764
1721374010674.4453,1172,4.321876418457212
1721374010684.3943,1173,3.1761384351925073
1721374010694.3435,1174,1.9910525230982776
1721374010704.2927,1175,0.787398673231421
1721374010714.242,1176,-0.4142497841957526
1721374010724.1912,1177,-1.593974834650145
1721374010734.1404,1178,-2.7329235863175656
1721374010744.0894,1179,-3.8137068762919006
1721374010754.0386,1180,-4.820785028655869
1721374010763.9878,1181,-5.740803355537459
1721374010773.937,1182,-6.562839286015004
1721374010783.8862,1183,-7.278554631294608
1721374010793.8354,1184,-7.882270599081512
1721374010803.785,1185,-8.3709853458724
1721374010813.7336,1186,-8.744345573036936
1721374010823.6829,1187,-9.004566376161941
1721374010833.632,1188,-9.156270048999637
1721374010843.5813,1189,-9.20621338929294
1721374010853.5305,1190,-9.162911665496498
1721374010863.4795,1191,-9.036205951637994
1721374010873.429,1192,-8.836815498933092
1721374010883.378,1193,-8.575894796974564
1721374010893.3271,1194,-8.264616667213431
1721374010903.2764,1195,-7.9138104319292255
1721374010913.2256,1196,-7.533674081129389
1721374010923.1748,1197,-7.133564238140835
1721374010933.124,1198,-6.7218590608061275
1721374010943.0732,1199,-6.305886602679985
1721374010953.0222,1200,-5.89191505079487
1721374010962.9714,1201,-5.485203121824478
1721374010972.921,1202,-5.090094605094999
1721374010982.87,1203,-4.710117916098023
1721374010992.819,1204,-4.34805283598351
1721374011002.7683,1205,-4.005960039366989
1721374011012.7175,1206,-3.6851907962597164
1721374011022.6667,1207,-3.386379346017564
1721374011032.6155,1208,-3.1094054247161518
1721374011042.5647,1209,-2.8533276444557916
1721374011052.5142,1210,-2.616301678803415
1721374011062.4634,1211,-2.39548885189913
1721374011072.4126,1212,-2.186960344445512
1721374011082.3618,1213,-1.9856262163065534
1721374011092.311,1214,-1.785230946794291
1721374011102.26,1215,-1.578435293077728
1721374011112.2092,1216,-1.3569766196875401
1721374011122.1584,1217,-1.1118966647769581
1721374011132.1077,1218,-0.8338376365700138
1721374011142.057,1219,-0.5134075404813817
1721374011152.006,1220,-0.14159829425255716
1721374011161.955,1221,0.2897743099091731
1721374011171.9043,1222,0.787637071371196
1721374011181.8535,1223,1.3572511422576221
1721374011191.8027,1224,2.001843408192155
1721374011201.752,1225,2.7222829500642822
1721374011211.7012,1226,3.516791648741303
1721374011221.6504,1227,4.380677486095458
1721374011231.5996,1228,5.30610793810227
1721374011241.5488,1229,6.281976341044998
1721374011251.4978,1230,7.293921635728545
1721374011261.447,1231,8.324534683401179
1721374011271.3962,1232,9.353755322758127
1721374011281.3457,1233,10.359450114152631
1721374011291.295,1234,11.31813607048467
1721374011301.244,1235,12.205789189328689
1721374011311.193,1236,12.998687727729324
1721374011321.142,1237,13.67426966023572
1721374011331.0913,1238,14.211989247233088
1721374011341.0403,1239,14.594146946925205
1721374011350.9895,1240,14.806655438665015
1721374011360.939,1241,14.839690194233409
1721374011370.8882,1242,14.688170354257073
1721374011380.8374,1243,14.352035251035124
1721374011390.7864,1244,13.836304450120021
1721374011400.7356,1245,13.150920949927924
1721374011410.6848,1246,12.310390117569924
1721374011420.634,1247,11.333243093352369
1721374011430.5833,1248,10.241350854980276
1721374011440.5325,1249,9.059096823938942
1721374011450.4817,1250,7.812422096912223
1721374011460.431,1251,6.527798605148644
1721374011470.38,1252,5.231223006695422
1721374011480.329,1253,3.947324208310229
1721374011490.2783,1254,2.6986355649628537
1721374011500.2275,1255,1.5050243342764946
1721374011510.1768,1256,0.3832421792854473
1721374011520.126,1257,-0.6534219285492913
1721374011530.0752,1258,-1.5953719082501268
1721374011540.0242,1259,-2.436790422956346
1721374011549.9734,1260,-3.175570609172789
1721374011559.9226,1261,-3.8131121216552044
1721374011569.8718,1262,-4.354012684161997
1721374011579.821,1263,-4.805680211492937
1721374011589.7705,1264,-5.177875143592253
1721374011599.7195,1265,-5.482183744474254
1721374011609.6685,1266,-5.7314353646042
1721374011619.6177,1267,-5.939097144616633
1721374011629.567,1268,-6.118684278537251
1721374011639.516,1269,-6.283213338082386
1721374011649.465,1270,-6.444715248603956
1721374011659.4146,1271,-6.613818413100553
1721374011669.3638,1272,-6.799407802633691
1721374011679.3127,1273,-7.008361516005773
1721374011689.262,1274,-7.245357996100138
1721374011699.2112,1275,-7.5127322901095255
1721374011709.1604,1276,-7.810365024785942
1721374011719.1096,1277,-8.135631950836311
1721374011729.0588,1278,-8.483473093295874
1721374011739.008,1279,-8.846604720006434
1721374011748.9573,1280,-9.215834977703583
1721374011758.9062,1281,-9.58042381397412
1721374011768.8557,1282,-9.928448725651078
1721374011778.8047,1283,-10.2471654297318
1721374011788.754,1284,-10.523377656794336
1721374011798.7031,1285,-10.743841141134098
1721374011808.6523,1286,-10.89569787458979
1721374011818.6016,1287,-10.966890815595473
1721374011828.5503,1288,-10.946510259349393
1721374011838.4998,1289,-10.825075046311047
1721374011848.449,1290,-10.594791063216997
1721374011858.3982,1291,-10.24982184891368
1721374011868.3474,1292,-9.786573360053941
1721374011878.2966,1293,-9.203964471227978
1721374011888.2458,1294,-8.503644828557382
1721374011898.1948,1295,-7.690139044346529
1721374011908.144,1296,-6.770916216494311
1721374011918.0933,1297,-5.756377054255133
1721374011928.0425,1298,-4.659734419387895
1721374011937.9917,1299,-3.496771987485576
1721374011947.941,1300,-2.2854894139401214
1721374011957.89,1301,-1.0456530100051025
1721374011967.8394,1302,0.2017262278549049
1721374011977.7883,1303,1.4349613421088683
1721374011987.7375,1304,2.6322771307088253
1721374011997.6868,1305,3.7723902593151633
1721374012007.636,1306,4.835064991726311
1721374012017.5852,1307,5.801639913220499
1721374012027.5344,1308,6.655516386629435
1721374012037.4836,1309,7.382588222984949
1721374012047.4326,1310,7.971593762304613
1721374012057.3818,1311,8.414376840965307
1721374012067.3313,1312,8.706045653137755
1721374012077.2805,1313,8.845027722635802
1721374012087.2295,1314,8.833030210561343
1721374012097.1787,1315,8.674918926179895
1721374012107.128,1316,8.378530702927412
1721374012117.077,1317,7.954427419340916
1721374012127.026,1318,7.415583143357408
1721374012136.975,1319,6.7769955979420935
1721374012146.9246,1320,6.055241405569378
1721374012156.8738,1321,5.268017443131527
1721374012166.823,1322,4.433703911991402
1721374012176.7722,1323,3.5709611324485713
1721374012186.7214,1324,2.6983518675115232
1721374012196.6704,1325,1.8339760104965546
1721374012206.6196,1326,0.9951133702402607
1721374012216.5688,1327,0.19788144149820483
1721374012226.518,1328,-0.5430820674744735
1721374012236.4673,1329,-1.2149089983249943
1721374012246.4165,1330,-1.806760447781839
1721374012256.3655,1331,-2.3100366028303636
1721374012266.3147,1332,-2.71850746939942
1721374012276.264,1333,-3.028360331113734
1721374012286.2131,1334,-3.2381913460022664
1721374012296.1624,1335,-3.3489656808065433
1721374012306.1116,1336,-3.3639455688128903
1721374012316.0608,1337,-3.288577922617485
1721374012326.01,1338,-3.1303419630792666
1721374012335.959,1339,-2.8985565017192214
1721374012345.9082,1340,-2.6041382183476496
1721374012355.8574,1341,-2.2593059288529624
1721374012365.8066,1342,-1.877242947431266
1721374012375.756,1343,-1.4717400259489908
1721374012385.705,1344,-1.0568284802261876
1721374012395.6543,1345,-0.6463970565012247
1721374012405.6033,1346,-0.25379200719587763
1721374012415.5525,1347,0.10859101816908676
1721374012425.5017,1348,0.42971961959298866
1721374012435.4507,1349,0.7003331885078459
1721374012445.4,1350,0.9133175161762652
1721374012455.3494,1351,1.064008641302692
1721374012465.2986,1352,1.1504013009865093
1721374012475.2478,1353,1.1732501025391013
1721374012485.1968,1354,1.1360642334510624
1721374012495.146,1355,1.0450110361651146
1721374012505.0952,1356,0.9087536599063095
1721374012515.0444,1357,0.7382507741694138
1721374012524.9937,1358,0.5465300746919451
1721374012534.9429,1359,0.3484028841690976
1721374012544.892,1360,0.16005171962620993
1721374012554.8413,1361,-0.001551107123046952
1721374012564.7903,1362,-0.11936369650032429
1721374012574.7395,1363,-0.1770558905378697
1721374012584.6887,1364,-0.1597787530572339
1721374012594.638,1365,-0.054876334293624346
1721374012604.5872,1366,0.14747998182933408
1721374012614.5364,1367,0.4537387176298553
1721374012624.4854,1368,0.8665111287032954
1721374012634.4346,1369,1.384249457168113
1721374012644.3838,1370,2.0011041055492624
1721374012654.333,1371,2.70697358721214
1721374012664.2822,1372,3.487734473177432
1721374012674.2314,1373,4.325635459799816
1721374012684.181,1374,5.199835857357096
1721374012694.13,1375,6.087058463517645
1721374012704.0789,1376,6.962334055512891
1721374012714.028,1377,7.799826682955148
1721374012723.9773,1378,8.573713161400647
1721374012733.9265,1379,9.259067542057993
1721374012743.8755,1380,9.83270959228952
1721374012753.825,1381,10.273998991609801
1721374012763.7742,1382,10.565560370077295
1721374012773.7231,1383,10.693914930569651
1721374012783.6724,1384,10.649988466324878
1721374012793.6216,1385,10.429459152366562
1721374012803.5708,1386,10.03290995642731
1721374012813.52,1387,9.46577440638749
1721374012823.4692,1388,8.738092047744708
1721374012833.4185,1389,7.864095340654851
1721374012843.3674,1390,6.861641993959675
1721374012853.317,1391,5.751514835101307
1721374012863.266,1392,4.5566358711789094
1721374012873.215,1393,3.301249835867779
1721374012883.1643,1394,2.0101175053170057
1721374012893.1135,1395,0.7077496368465542
1721374012903.0627,1396,-0.5822826954047863
1721374012913.0117,1397,-1.8379312343138425
1721374012922.9607,1398,-3.039141982845982
1721374012932.9102,1399,-4.168228588653735
1721374012942.8594,1400,-5.21015616166163
1721374012952.8086,1401,-6.152735069478248
1721374012962.7578,1402,-6.986735948545716
1721374012972.707,1403,-7.705953802786718
1721374012982.6562,1404,-8.307234156591035
1721374012992.6052,1405,-8.79043454002219
1721374013002.5544,1406,-9.158286254029017
1721374013012.5037,1407,-9.416160586698485
1721374013022.453,1408,-9.571773359462009
1721374013032.402,1409,-9.63484789250243
1721374013042.3513,1410,-9.616731265731799
1721374013052.3003,1411,-9.529954451058414
1721374013062.2495,1412,-9.387741407488525
1721374013072.1987,1413,-9.203488814255703
1721374013082.148,1414,-8.990243972988662
1721374013092.0972,1415,-8.760199959152548
1721374013102.0464,1416,-8.524215514913317
1721374013111.9956,1417,-8.291375236900322
1721374013121.9448,1418,-8.068629510613173
1721374013131.8938,1419,-7.860557460270741
1721374013141.843,1420,-7.669274637322437
1721374013151.7922,1421,-7.494486756650083
1721374013161.7417,1422,-7.333671704447745
1721374013171.691,1423,-7.182349487914323
1721374013181.64,1424,-7.034397863717055
1721374013191.589,1425,-6.882396992353174
1721374013201.5383,1426,-6.718006444531451
1721374013211.4873,1427,-6.532369255791883
1721374013221.4363,1428,-6.316521420183643
1721374013231.3855,1429,-6.061786742967021
1721374013241.335,1430,-5.760143953414522
1721374013251.2842,1431,-5.4045502726245935
1721374013261.2334,1432,-4.989203273068706
1721374013271.1826,1433,-4.5097263965398104
1721374013281.1316,1434,-3.96327525917733
1721374013291.0808,1435,-3.348582500472458
1721374013301.03,1436,-2.665968060379826
1721374013310.9792,1437,-1.9173303500399506
1721374013320.9285,1438,-1.1061197788165549
1721374013330.8777,1439,-0.23728778921043917
1721374013340.827,1440,0.6827975114320105
1721374013350.776,1441,1.6464662992826715
1721374013360.725,1442,2.6448714105158366
1721374013370.6743,1443,3.6680963704997405
1721374013380.6235,1444,4.705236367111016
1721374013390.5728,1445,5.744465069800618
1721374013400.522,1446,6.773111282127203
1721374013410.4712,1447,7.777756666181898
1721374013420.4204,1448,8.74435450808971
1721374013430.3694,1449,9.658382866838915
1721374013440.3186,1450,10.505056820736236
1721374013450.2678,1451,11.269606948939058
1721374013460.217,1452,11.93760242884233
1721374013470.1665,1453,12.495285464869838
1721374013480.1155,1454,12.929898439270177
1721374013490.0647,1455,13.230010954915128
1721374013500.0137,1456,13.385862250012323
1721374013509.963,1457,13.389719898418809
1721374013519.912,1458,13.236239212136244
1721374013529.861,1459,12.922799351511975
1721374013539.8103,1460,12.449785819014046
1721374013549.7598,1461,11.820787265326091
1721374013559.709,1462,11.042684551116992
1721374013569.658,1463,10.125621921291753
1721374013579.6072,1464,9.082848696437793
1721374013589.5564,1465,7.930415606717407
1721374013599.5056,1466,6.686724974614675
1721374013609.4548,1467,5.371961175613409
1721374013619.404,1468,4.007446514746208
1721374013629.3533,1469,2.614975272774667
1721374013639.3022,1470,1.2161711813776703
1721374013649.2517,1471,-0.16810850865195337
1721374013659.2007,1472,-1.5183100123750428
1721374013669.15,1473,-2.8166431234307776
1721374013679.099,1474,-4.047450387293911
1721374013689.0483,1475,-5.197479127224513
1721374013698.9976,1476,-6.2560428225419
1721374013708.9468,1477,-7.215059839104547
1721374013718.8958,1478,-8.068983047310935
1721374013728.845,1479,-8.814648108331253
1721374013738.7942,1480,-9.451054930643991
1721374013748.7434,1481,-9.97908479381233
1721374013758.6926,1482,-10.401164188661179
1721374013768.6418,1483,-10.720905717145278
1721374013778.5913,1484,-10.942767750348358
1721374013788.54,1485,-11.071768721219843
1721374013798.4893,1486,-11.113273369115722
1721374013808.4385,1487,-11.072848260321052
1721374013818.3877,1488,-10.956172209033518
1721374013828.337,1489,-10.768984440675354
1721374013838.286,1490,-10.517053430625218
1721374013848.2354,1491,-10.206152669247635
1721374013858.1843,1492,-9.842040829325308
1721374013868.1335,1493,-9.430449561902055
1721374013878.0828,1494,-8.97706856038415
1721374013888.032,1495,-8.487509175267709
1721374013897.9812,1496,-7.967246535516433
1721374013907.9304,1497,-7.42155689500911
1721374013917.8796,1498,-6.8554554035529645
1721374013927.8289,1499,-6.273622927242716
1721374013937.7778,1500,-5.680316123556373
1721374013947.7273,1501,-5.079273381456378
1721374013957.6765,1502,-4.473635211177599
1721374013967.6255,1503,-3.865881026086975
1721374013977.5747,1504,-3.2577656421816203
1721374013987.524,1505,-2.6502439003239924
1721374013997.4731,1506,-2.043388816099415
1721374014007.422,1507,-1.4363156768873095
1721374014017.371,1508,-0.8271288825164721
1721374014027.3206,1509,-0.21292001015762488
1721374014037.2698,1510,0.4101472352117058
1721374014047.219,1511,1.0466433349404511
1721374014057.1682,1512,1.7015770501633722
1721374014067.1174,1513,2.380019371714173
1721374014077.0664,1514,3.086666047104304
1721374014087.0156,1515,3.8253591972980128
1721374014096.9648,1516,4.598605281191769
1721374014106.914,1517,5.407141839476136
1721374014116.8633,1518,6.2496017443537575
1721374014126.8125,1519,7.122293462134083
1721374014136.7617,1520,8.019076348022336
1721374014146.7107,1521,8.93130234867894
1721374014156.66,1522,9.847826540505121
1721374014166.6091,1523,10.755115312003435
1721374014176.5583,1524,11.637475992376178
1721374014186.5076,1525,12.477412252807845
1721374014196.4568,1526,13.256095481302038
1721374014206.406,1527,13.953933399547473
1721374014216.3552,1528,14.55121053766136
1721374014226.3042,1529,15.028772291159719
1721374014236.2534,1530,15.368721947053936
1721374014246.2026,1531,15.555100820388223
1721374014256.152,1532,15.574529935975864
1721374014266.1013,1533,15.416793960935527
1721374014276.0503,1534,15.075337738528345
1721374014285.9995,1535,14.547641965919382
1721374014295.9485,1536,13.835453841711837
1721374014305.8977,1537,12.944856624495152
1721374014315.8467,1538,11.886174078506865
1721374014325.796,1539,10.673733975320634
1721374014335.7454,1540,9.325535636112898
1721374014345.6946,1541,7.862848224491024
1721374014355.6438,1542,6.309726001405561
1721374014365.5928,1543,4.692410459001578
1721374014375.542,1544,3.0386061006833645
1721374014385.4912,1545,1.3766432877576085
1721374014395.4404,1546,-0.26542871557094877
1721374014405.3896,1547,-1.860752831794731
1721374014415.3389,1548,-3.384518875022065
1721374014425.288,1549,-4.81471544518981
1721374014435.2373,1550,-6.1327298901031915
1721374014445.1863,1551,-7.323753036052047
1721374014455.1355,1552,-8.376981727820606
1721374014465.0847,1553,-9.285646479036455
1721374014475.034,1554,-10.046896170172078
1721374014484.9832,1555,-10.661567228827336
1721374014494.9324,1556,-11.133863490839168
1721374014504.8816,1557,-11.47096135153313
1721374014514.8306,1558,-11.682547268640075
1721374014524.7798,1559,-11.780308975797196
1721374014534.729,1560,-11.777408518267475
1721374014544.6782,1561,-11.687945699523896
1721374014554.6274,1562,-11.5264095409953
1721374014564.577,1563,-11.307132443798158
1721374014574.526,1564,-11.043774780136971
1721374014584.4749,1565,-10.74886110354581
1721374014594.424,1566,-10.433388784361878
1721374014604.3733,1567,-10.10653641219957
1721374014614.3225,1568,-9.775484823433848
1721374014624.2715,1569,-9.445334568034214
1721374014634.2207,1570,-9.11909518755405
1721374014644.1702,1571,-8.797737466357217
1721374014654.1194,1572,-8.480306413754851
1721374014664.0684,1573,-8.164082250814339
1721374014674.0176,1574,-7.844778295481099
1721374014683.9668,1575,-7.516780221294139
1721374014693.916,1576,-7.17343594295193
1721374014703.8652,1577,-6.807397758747748
1721374014713.8145,1578,-6.411009377329217
1721374014723.7637,1579,-5.976721768894426
1721374014733.7126,1580,-5.497513461358615
1721374014743.662,1581,-4.967288737482365
1721374014753.611,1582,-4.38123826566199
1721374014763.5603,1583,-3.7361593239682445
1721374014773.5095,1584,-3.0307261918160813
1721374014783.4587,1585,-2.2656902905902103
1721374014793.408,1586,-1.4440008051230226
1721374014803.3567,1587,-0.5708520639110666
1721374014813.3062,1588,0.3463394257931909
1721374014823.2554,1589,1.2980313996386281
1721374014833.2046,1590,2.2727218192658905
1721374014843.1538,1591,3.2571730752089603
1721374014853.103,1592,4.236686564364666
1721374014863.0522,1593,5.195425729374798
1721374014873.0012,1594,6.116788238698293
1721374014882.9504,1595,6.983832720030932
1721374014892.8997,1596,7.77976254855046
1721374014902.8489,1597,8.488451360405895
1721374014912.798,1598,9.094985729521712
1721374014922.7473,1599,9.586204004800193
1721374014932.6963,1600,9.951201865886677
1721374014942.6458,1601,10.181764672373875
1721374014952.5947,1602,10.272695742141016
1721374014962.544,1603,10.222025193295112
1721374014972.4932,1604,10.031094515829366
1721374014982.4424,1605,9.704520035890477
1721374014992.3916,1606,9.250041175279733
1721374015002.3408,1607,8.678260218282853
1721374015012.29,1608,8.00228629637811
1721374015022.239,1609,7.237302408863875
1721374015032.1882,1610,6.400072949847094
1721374015042.1377,1611,5.5084088228442525
1721374015052.087,1612,4.580618572174442
1721374015062.036,1613,3.6349821068038897
1721374015071.985,1614,2.68926965467046
1721374015081.9343,1615,1.7603064906585026
1721374015091.8833,1616,0.8635775309339165
1721374015101.8325,1617,0.012873767784918772
1721374015111.7815,1618,-0.7800113722429728
1721374015121.731,1619,-1.5055266447745752
1721374015131.6802,1620,-2.156531424061828
1721374015141.6294,1621,-2.728359598642121
1721374015151.5786,1622,-3.218761997072887
1721374015161.5278,1623,-3.627743555044845
1721374015171.4768,1624,-3.9573304879386995
1721374015181.426,1625,-4.21129156913361
1721374015191.3752,1626,-4.394820379180897
1721374015201.3245,1627,-4.514189838437031
1721374015211.2737,1628,-4.5764068590746785
1721374015221.223,1629,-4.58889190070564
1721374015231.172,1630,-4.559187425667148
1721374015241.121,1631,-4.494691852271829
1721374015251.0703,1632,-4.40242651763364
1721374015261.0195,1633,-4.288849171849753
1721374015270.9688,1634,-4.1597204383124184
1721374015280.918,1635,-4.020020086570607
1721374015290.8672,1636,-3.8739057478646197
1721374015300.8164,1637,-3.724708447977207
1721374015310.7654,1638,-3.574958266016414
1721374015320.7146,1639,-3.42642382549041
1721374015330.6638,1640,-3.280144820278265
1721374015340.613,1641,-3.136448672300092
1721374015350.5625,1642,-2.9949577050273124
1721374015360.5117,1643,-2.854596241982127
1721374015370.4607,1644,-2.7136004891429044
1721374015380.4097,1645,-2.5695281541742303
1721374015390.359,1646,-2.419266395285452
1721374015400.308,1647,-2.2590457722534336
1721374015410.257,1648,-2.0844789189890514
1721374015420.2063,1649,-1.8906500654997442
1721374015430.1558,1650,-1.672275395861912
1721374015440.105,1651,-1.4239303324297456
1721374015450.0542,1652,-1.1403138682827778
1721374015460.0032,1653,-0.8165135777594961
1721374015469.9524,1654,-0.4482544012812481
1721374015479.9016,1655,-0.032142159556414016
1721374015489.8508,1656,0.4340772355191143
1721374015499.8,1657,0.9512364794072794
1721374015509.7493,1658,1.5184622689878693
1721374015519.6985,1659,2.1329212012964023
1721374015529.6477,1660,2.7896253237578073
1721374015539.5967,1661,3.4813175002994616
1721374015549.546,1662,4.198454129259568
1721374015559.495,1663,4.929297491023944
1721374015569.4443,1664,5.660124725292747
1721374015579.3936,1665,6.375555685914256
1721374015589.3428,1666,7.058985104423233
1721374015599.2915,1667,7.69309240932131
1721374015609.241,1668,8.260417048588707
1721374015619.1902,1669,8.744003082764978
1721374015629.1394,1670,9.128101969306657
1721374015639.0886,1671,9.398885431984436
1721374015649.0378,1672,9.545094812991788
1721374015658.9873,1673,9.558562600035303
1721374015668.9363,1674,9.434576040759623
1721374015678.8853,1675,9.172080554283218
1721374015688.8345,1676,8.773725036883052
1721374015698.7837,1677,8.245746062166806
1721374015708.733,1678,7.597696089082799
1721374015718.682,1679,6.842039854041404
1721374015728.631,1680,5.993652186724808
1721374015738.5806,1681,5.0692471857528645
1721374015748.5295,1682,4.08676977549014
1721374015758.4788,1683,3.0647849761285837
1721374015768.428,1684,2.02188874426253
1721374015778.3772,1685,0.9761475275221375
1721374015788.3264,1686,-0.05541698684091038
1721374015798.2756,1687,-1.0572630483477505
1721374015808.2249,1688,-2.0156612704981014
1721374015818.1738,1689,-2.9189282773181957
1721374015828.123,1690,-3.757573634064336
1721374015838.0725,1691,-4.524371166881024
1721374015848.0215,1692,-5.214370293657346
1721374015857.9707,1693,-5.824863428974563
1721374015867.92,1694,-6.355313791597638
1721374015877.8691,1695,-6.807233439565382
1721374015887.8184,1696,-7.184000612742513
1721374015897.767,1697,-7.490618619932248
1721374015907.7166,1698,-7.733422363478335
1721374015917.6658,1699,-7.919724017839355
1721374015927.615,1700,-8.057383966454603
1721374015937.5642,1701,-8.154318166801913
1721374015947.5134,1702,-8.217990052647284
1721374015957.4626,1703,-8.254954307647203
1721374015967.4116,1704,-8.270511196452135
1721374015977.3608,1705,-8.268498572629973
1721374015987.31,1706,-8.251210290464394
1721374015997.2593,1707,-8.219410001992516
1721374016007.2085,1708,-8.172419464759969
1721374016017.1577,1709,-8.108280094548887
1721374016027.1067,1710,-8.023985591601452
1721374016037.056,1711,-7.915760754343903
1721374016047.0051,1712,-7.779346589833255
1721374016056.9543,1713,-7.610260523467665
1721374016066.9036,1714,-7.404016801756616
1721374016076.8528,1715,-7.156304873304792
1721374016086.802,1716,-6.863137633720251
1721374016096.7512,1717,-6.520990808283942
1721374016106.7002,1718,-6.126946207697691
1721374016116.6494,1719,-5.67883262886386
1721374016126.5986,1720,-5.175348368615339
1721374016136.548,1721,-4.616148879892938
1721374016146.4973,1722,-4.001886771670485
1721374016156.4463,1723,-3.334208795419179
1721374016166.3955,1724,-2.615736088441474
1721374016176.3447,1725,-1.8500523128049182
1721374016186.2937,1726,-1.0417024404553923
1721374016196.243,1727,-0.19618500890822607
1721374016206.192,1728,0.6800825652501464
1721374016216.1414,1729,1.579824989398177
1721374016226.0906,1730,2.49497218041368
1721374016236.0398,1731,3.4167085719946972
1721374016245.989,1732,4.3355203331759204
1721374016255.938,1733,5.2412583535617046
1721374016265.8872,1734,6.123218840257313
1721374016275.8364,1735,6.970237651508895
1721374016285.7856,1736,7.770806340512102
1721374016295.7349,1737,8.513223628795211
1721374016305.684,1738,9.185790781685968
1721374016315.6333,1739,9.777057710737616
1721374016325.5825,1740,10.276123295910539
1721374016335.5315,1741,10.672979941816871
1721374016345.4807,1742,10.958881379384877
1721374016355.43,1743,11.1267117740448
1721374016365.3792,1744,11.17133515600165
1721374016375.3284,1745,11.089902502359093
1721374016385.2776,1746,10.882091266665066
1721374016395.2268,1747,10.550249832638626
1721374016405.1758,1748,10.099422040513401
1721374016415.125,1749,9.537242791710083
1721374016425.0742,1750,8.873719107191329
1721374016435.0234,1751,8.120926362285202
1721374016444.973,1752,7.292656823679854
1721374016454.922,1753,6.404057591613875
1721374016464.871,1754,5.4712741949734935
1721374016474.82,1755,4.51108513156335
1721374016484.7693,1756,3.5405078792112836
1721374016494.7185,1757,2.576383146173454
1721374016504.6675,1758,1.6349629855149592
1721374016514.6167,1759,0.7315186907051497
1721374016524.5662,1760,-0.1200279179559899
1721374016534.5154,1761,-0.9074403394773171
1721374016544.4644,1762,-1.6204511734841374
1721374016554.4136,1763,-2.2509780968880433
1721374016564.3628,1764,-2.793270360932495
1721374016574.312,1765,-3.243990466794487
1721374016584.2612,1766,-3.6022286987879215
1721374016594.2104,1767,-3.8694497367285354
1721374016604.1597,1768,-4.049384759006298
1721374016614.1086,1769,-4.147882350457681
1721374016624.058,1770,-4.172713985382258
1721374016634.007,1771,-4.133319769746211
1721374016643.9563,1772,-4.040487214922052
1721374016653.9055,1773,-3.905974025130502
1721374016663.8547,1774,-3.7421031624003738
1721374016673.804,1775,-3.561357883033375
1721374016683.7532,1776,-3.375988153638339
1721374016693.702,1777,-3.1976297343330944
1721374016703.6514,1778,-3.036940009517343
1721374016713.6006,1779,-2.9032582929077226
1721374016723.5498,1780,-2.8043001231414073
1721374016733.499,1781,-2.7459042555577864
1721374016743.4482,1782,-2.7318637409833144
1721374016753.3977,1783,-2.7638697800411522
1721374016763.3464,1784,-2.8415724236711326
1721374016773.2957,1785,-2.9627317132767192
1721374016783.2449,1786,-3.1234178380179953
1721374016793.194,1787,-3.31822664611616
1721374016803.1433,1788,-3.5404957604558467
1721374016813.0923,1789,-3.7825174046161014
1721374016823.0415,1790,-4.03573961169736
1721374016832.9907,1791,-4.290941535292967
1721374016842.94,1792,-4.538379080912614
1721374016852.8892,1793,-4.767922593462979
1721374016862.8384,1794,-4.969223603987114
1721374016872.7876,1795,-5.131925942401763
1721374016882.7368,1796,-5.2458910195226345
1721374016892.686,1797,-5.301390841323186
1721374016902.6353,1798,-5.289259648287994
1721374016912.5842,1799,-5.201043213976844
1721374016922.5334,1800,-5.029192196338378
1721374016932.483,1801,-4.767317392482212
1721374016942.432,1802,-4.410498425852533
1721374016952.381,1803,-3.9556258827719786
1721374016962.3303,1804,-3.4017473511132916
1721374016972.2795,1805,-2.7503795258738255
1721374016982.2285,1806,-2.00575924833614
1721374016992.1775,1807,-1.1750325897837992
1721374017002.127,1808,-0.26838618724681623
1721374017012.0762,1809,0.7008981599872769
1721374017022.0254,1810,1.7165001959544748
1721374017031.9746,1811,2.759261204007776
1721374017041.9238,1812,3.807551614756843
1721374017051.8728,1813,4.837813920634568
1721374017061.822,1814,5.825269475767464
1721374017071.7712,1815,6.744775457241125
1721374017081.7205,1816,7.571816279960824
1721374017091.6697,1817,8.283583328897828
1721374017101.619,1818,8.860056854911337
1721374017111.568,1819,9.284990169181324
1721374017121.517,1820,9.546708908832214
1721374017131.4663,1821,9.638660164459809
1721374017141.4155,1822,9.559669259381533
1721374017151.3647,1823,9.313884555199301
1721374017161.314,1824,8.910420122831539
1721374017171.2632,1825,8.362745273125354
1721374017181.2124,1826,7.687898886081679
1721374017191.1616,1827,6.905608727246598
1721374017201.1106,1828,6.037386401559682
1721374017211.0598,1829,5.1056607260483915
1721374017221.009,1830,4.132994377719576
1721374017230.9585,1831,3.1413972563463766
1721374017240.9077,1832,2.1517253292159486
1721374017250.8567,1833,1.1831547700220486
1721374017260.806,1834,0.25274081318353864
1721374017270.755,1835,-0.6249202404842802
1721374017280.704,1836,-1.4379203485141705
1721374017290.6533,1837,-2.1771706781330455
1721374017300.6023,1838,-2.836448082050887
1721374017310.5518,1839,-3.4123619292352716
1721374017320.501,1840,-3.9042324652993385
1721374017330.4502,1841,-4.313876312395785
1721374017340.3992,1842,-4.6453224548610565
1721374017350.3484,1843,-4.904493905723486
1721374017360.2976,1844,-5.098865969570806
1721374017370.2468,1845,-5.237087965274509
1721374017380.196,1846,-5.328559176638189
1721374017390.1453,1847,-5.382972899549021
1721374017400.0945,1848,-5.409868679807661
1721374017410.0437,1849,-5.418238941047556
1721374017419.993,1850,-5.416210755296202
1721374017429.942,1851,-5.410795414237238
1721374017439.891,1852,-5.4076951120415275
1721374017449.8403,1853,-5.4111673169546375
1721374017459.7896,1854,-5.423957357644591
1721374017469.7388,1855,-5.447313168781747
1721374017479.688,1856,-5.481083289398764
1721374017489.637,1857,-5.523868285076886
1721374017499.5862,1858,-5.5731718617904855
1721374017509.5354,1859,-5.625506578835083
1721374017519.4846,1860,-5.676442342576699
1721374017529.4338,1861,-5.720618047591776
1721374017539.3833,1862,-5.751751601591426
1721374017549.3325,1863,-5.762681895799026
1721374017559.2812,1864,-5.745471257370368
1721374017569.2305,1865,-5.6915867527313235
1721374017579.1797,1866,-5.592154924755969
1721374017589.129,1867,-5.438271808047939
1721374017599.078,1868,-5.221364185828191
1721374017609.027,1869,-4.933604517189267
1721374017618.9766,1870,-4.568360657485097
1721374017628.9258,1871,-4.1206382076288435
1721374017638.8748,1872,-3.5874633653702332
1721374017648.824,1873,-2.9681499683308155
1721374017658.7732,1874,-2.2644066134491228
1721374017668.7224,1875,-1.4802824919973325
1721374017678.6716,1876,-0.6219965672297039
1721374017688.6208,1877,0.30228971795868664
1721374017698.57,1878,1.2827009976435202
1721374017708.519,1879,2.3078337912819182
1721374017718.4685,1880,3.364882884573172
1721374017728.4175,1881,4.439730576154551
1721374017738.3667,1882,5.517046044908799
1721374017748.316,1883,6.580440908478612
1721374017758.2651,1884,7.6127095805601295
1721374017768.2144,1885,8.596162548344386
1721374017778.163,1886,9.513043215943224
1721374017788.1123,1887,10.346007059742751
1721374017798.0618,1888,11.078634483241501
1721374017808.011,1889,11.695940573188858
1721374017817.9602,1890,12.18483845245748
1721374017827.9094,1891,12.534523658703035
1721374017837.8586,1892,12.736772334233823
1721374017847.8076,1893,12.786154291527344
1721374017857.7568,1894,12.680150005986194
1721374017867.706,1895,12.419160695259423
1721374017877.6553,1896,12.006417139190278
1721374017887.6045,1897,11.447808589482436
1721374017897.5537,1898,10.751665599817112
1721374017907.5027,1899,9.928535579841572
1721374017917.452,1900,8.990978133455885
1721374017927.4011,1901,7.953380365770462
1721374017937.3503,1902,6.831766309457005
1721374017947.2996,1903,5.643573944684403
1721374017957.2488,1904,4.407393538964441
1721374017967.198,1905,3.1426654331271937
1721374017977.1472,1906,1.869320069874864
1721374017987.0964,1907,0.6073413519913574
1721374017997.0454,1908,-0.6237444639389107
1721374018006.9946,1909,-1.8054269591596996
1721374018016.9438,1910,-2.920773525176943
1721374018026.8933,1911,-3.954948093624186
1721374018036.8423,1912,-4.8956446378098954
1721374018046.7915,1913,-5.73340170598437
1721374018056.7407,1914,-6.461777799727778
1721374018066.6897,1915,-7.077389328313478
1721374018076.639,1916,-7.579835905449106
1721374018086.588,1917,-7.971546408166564
1721374018096.5374,1918,-8.257560883254513
1721374018106.4866,1919,-8.445234488175947
1721374018116.4358,1920,-8.54384688405567
1721374018126.385,1921,-8.564123357967395
1721374018136.3342,1922,-8.517691329103043
1721374018146.2832,1923,-8.416504829568268
1721374018156.2324,1924,-8.272282298325203
1721374018166.1816,1925,-8.096006176845032
1721374018176.1309,1926,-7.897511408070955
1721374018186.08,1927,-7.685163656541624
1721374018196.0293,1928,-7.46562292095028
1721374018205.9785,1929,-7.243696189188407
1721374018215.9275,1930,-7.0222844331319285
1721374018225.8767,1931,-6.802423896588383
1721374018235.826,1932,-6.583416831758485
1721374018245.7751,1933,-6.3630451789222375
1721374018255.7244,1934,-6.137853926636157
1721374018265.6736,1935,-5.9034748092348055
1721374018275.6228,1936,-5.654953244938101
1721374018285.5718,1937,-5.387051400528324
1721374018295.521,1938,-5.094514674460405
1721374018305.4702,1939,-4.772303181524316
1721374018315.4194,1940,-4.415802354722967
1721374018325.369,1941,-4.021020876536882
1721374018335.318,1942,-3.58476471253077
1721374018345.267,1943,-3.104774959498242
1721374018355.2163,1944,-2.5798317822072874
1721374018365.1653,1945,-2.0098265996299274
1721374018375.1145,1946,-1.395796919096125
1721374018385.0637,1947,-0.7399250321828829
1721374018395.0127,1948,-0.04551096082466936
1721374018404.9622,1949,0.6830748815557558
1721374018414.9114,1950,1.4404622854785005
1721374018424.8606,1951,2.2203747231082795
1721374018434.8096,1952,3.015726272761145
1721374018444.7588,1953,3.818682821123351
1721374018454.708,1954,4.6206606803553445
1721374018464.6572,1955,5.412282666588294
1721374018474.6064,1956,6.183347838726978
1721374018484.5557,1957,6.922866087434186
1721374018494.505,1958,7.619182518681804
1721374018504.454,1959,8.26020088911052
1721374018514.4033,1960,8.833717183706558
1721374018524.3523,1961,9.327872640666174
1721374018534.3015,1962,9.731702645096421
1721374018544.2507,1963,10.035705189449718
1721374018554.2,1964,10.232332249820105
1721374018564.1492,1965,10.316339923319495
1721374018574.098,1966,10.284979816543263
1721374018584.0474,1967,10.138042051854521
1721374018593.9966,1968,9.877773648866116
1721374018603.9458,1969,9.508702558742593
1721374018613.895,1970,9.037397506076577
1721374018623.8442,1971,8.472191299252104
1721374018633.7937,1972,7.822891501620185
1721374018643.743,1973,7.100491485489694
1721374018653.6917,1974,6.316876810074743
1721374018663.6409,1975,5.484511618130407
1721374018673.59,1976,4.616102719882657
1721374018683.5393,1977,3.7242630122466216
1721374018693.4883,1978,2.8212069246458222
1721374018703.4375,1979,1.9185067885277152
1721374018713.387,1980,1.0269238562145748
1721374018723.336,1981,0.15630362252427535
1721374018733.2852,1982,-0.6844913648771499
1721374018743.2344,1983,-1.4876402446528583
1721374018753.1836,1984,-2.246434761201778
1721374018763.1328,1985,-2.9553583570637736
1721374018773.082,1986,-3.6101411211443084
1721374018783.0312,1987,-4.207759547050082
1721374018792.9802,1988,-4.746384972229944
1721374018802.9294,1989,-5.225310154077698
1721374018812.879,1990,-5.6448654717667015
1721374018822.828,1991,-6.006309433498609
1721374018832.777,1992,-6.311692897280808
1721374018842.7263,1993,-6.563726451706338
1721374018852.6755,1994,-6.765669525316113
1721374018862.6248,1995,-6.921222588528471
1721374018872.5735,1996,-7.0343957486981
1721374018882.5227,1997,-7.109352299963784
1721374018892.4722,1998,-7.150244394762347
1721374018902.4214,1999,-7.161052073039757
1721374018912.3706,2000,-7.145422351065919
1721374018922.3198,2001,-7.106505335252271
1721374018932.269,2002,-7.046804283278276
1721374018942.218,2003,-6.968071224609893
1721374018952.1672,2004,-6.871267785275401
1721374018962.1165,2005,-6.7565843598250686
1721374018972.0657,2006,-6.62349377245129
1721374018982.015,2007,-6.470819662105967
1721374018991.964,2008,-6.296814472495684
1721374019001.913,2009,-6.099242871884163
1721374019011.8623,2010,-5.875455639557806
1721374019021.8115,2011,-5.62244378934469
1721374019031.7607,2012,-5.336884314056979
1721374019041.71,2013,-5.015203618464599
1721374019051.6592,2014,-4.653682976515168
1721374019061.6084,2015,-4.248617600669793
1721374019071.5576,2016,-3.796524007459121
1721374019081.5068,2017,-3.2943804952134466
1721374019091.4558,2018,-2.739890211235614
1721374019101.405,2019,-2.131764912700183
1721374019111.3542,2020,-1.470020734627259
1721374019121.3037,2021,-0.7562542376779208
1721374019131.2527,2022,0.006143041313869621
1721374019141.202,2023,0.8118508840593581
1721374019151.1511,2024,1.653562706346361
1721374019161.1,2025,2.5220043751909613
1721374019171.0493,2026,3.4060401846342763
1721374019180.9983,2027,4.292863513125297
1721374019190.9478,2028,5.168253951020754
1721374019200.897,2029,6.016886455364638
1721374019210.8462,2030,6.822689554627872
1721374019220.7954,2031,7.569258579424465
1721374019230.7444,2032,8.240333656142038
1721374019240.6936,2033,8.820338172424197
1721374019250.6428,2034,9.294946873598459
1721374019260.592,2035,9.651638961127587
1721374019270.5413,2036,9.88019380819412
1721374019280.4905,2037,9.973092398818684
1721374019290.4397,2038,9.925796107347615
1721374019300.389,2039,9.736891750641481
1721374019310.338,2040,9.408114662977994
1721374019320.287,2041,8.944271918298785
1721374019330.2363,2042,8.353077154438509
1721374019340.1855,2043,7.644898865058381
1721374019350.1348,2044,6.8324301917128745
1721374019360.084,2045,5.930298907146527
1721374019370.0332,2046,4.954645605479366
1721374019379.9822,2047,3.92269869257148
1721374019389.9314,2048,2.8523568150519263
1721374019399.8806,2049,1.761775697917542
1721374019409.8298,2050,0.6689674658934962
1721374019419.7793,2051,-0.4085680138866813
1721374019429.7285,2052,-1.4541650912286015
1721374019439.6775,2053,-2.452259527984935
1721374019449.6265,2054,-3.388602118453245
1721374019459.5757,2055,-4.250438304165801
1721374019469.525,2056,-5.026680173290683
1721374019479.474,2057,-5.708077001566162
1721374019489.423,2058,-6.287359210454512
1721374019499.3726,2059,-6.759317245990512
1721374019509.3218,2060,-7.120799491661408
1721374019519.2708,2061,-7.370655508821707
1721374019529.22,2062,-7.5096676384279215
1721374019539.1692,2063,-7.5404855506967445
1721374019549.1184,2064,-7.467541273700239
1721374019559.0676,2065,-7.296920611302141
1721374019569.0168,2066,-7.0361938711030785
1721374019578.966,2067,-6.694225240145027
1721374019588.9153,2068,-6.280968672798816
1721374019598.8645,2069,-5.807241648729233
1721374019608.8137,2070,-5.284477138320958
1721374019618.7627,2071,-4.724479070785675
1721374019628.712,2072,-4.139207167309889
1721374019638.6611,2073,-3.5405837344786435
1721374019648.6104,2074,-2.9402822516703258
1721374019658.5596,2075,-2.349458010906658
1721374019668.5083,2076,-1.778420002209167
1721374019678.4578,2077,-1.236289725406052
1721374019688.407,2078,-0.7307000856154138
1721374019698.3562,2079,-0.2675551375487873
1721374019708.3054,2080,0.14915715172532598
1721374019718.2546,2081,0.5175022686240098
1721374019728.204,2082,0.8376612216648245
1721374019738.1528,2083,1.1118797471351485
1721374019748.102,2084,1.3442976344931308
1721374019758.0513,2085,1.5406916007797122
1721374019768.0005,2086,1.7081702309125675
1721374019777.9497,2087,1.854840115854902
1721374019787.8987,2088,1.989451666625281
1721374019797.848,2089,2.121032690559595
1721374019807.797,2090,2.2585154749482954
1721374019817.7463,2091,2.4103549089969567
1721374019827.6956,2092,2.5841326560650995
1721374019837.6448,2093,2.786161692700948
1721374019847.594,2094,3.021127890311579
1721374019857.5432,2095,3.2918015160191665
1721374019867.4924,2096,3.5988311494906573
1721374019877.4417,2097,3.940615919697407
1721374019887.3906,2098,4.313250268951524
1721374019897.3398,2099,4.710553118006254
1721374019907.2893,2100,5.124203743527944
1721374019917.2383,2101,5.543986587309666
1721374019927.1875,2102,5.95812384005618
1721374019937.1367,2103,6.353673380546822
1721374019947.086,2104,6.71697897213051
1721374019957.035,2105,7.034164512549569
1721374019966.984,2106,7.291654797300464
1721374019976.933,2107,7.476687105145467
1721374019986.8826,2108,7.5777778065949555
1721374019996.8318,2109,7.5851302508148075
1721374020006.781,2110,7.490986115162997
1721374020016.7302,2111,7.289920688261735
1721374020026.6792,2112,6.979077327174402
1721374020036.6284,2113,6.558332513833185
1721374020046.5776,2114,6.030378024024929
1721374020056.5269,2115,5.4007093347139135
1721374020066.476,2116,4.677519527043776
1721374020076.4253,2117,3.871504092747678
1721374020086.3745,2118,2.9955872898000515
1721374020096.3235,2119,2.0645848606897657
1721374020106.2727,2120,1.094807408360223
1721374020116.222,2121,0.10359738443957794
1721374020126.1711,2122,-0.8911957921950009
1721374020136.1204,2123,-1.8717829208788697
1721374020146.0696,2124,-2.821025647801307
1721374020156.0188,2125,-3.72302633093324
1721374020165.968,2126,-4.5636761014926766
1721374020175.917,2127,-5.331114495687742
1721374020185.8662,2128,-6.0160621565465
1721374020195.8154,2129,-6.61200263984031
1721374020205.7646,2130,-7.115211258878192
1721374020215.714,2131,-7.524651758328219
1721374020225.663,2132,-7.841774040876889
1721374020235.6123,2133,-8.07023987222504
1721374020245.5613,2134,-8.215583528693013
1721374020255.5105,2135,-8.284806647777783
1721374020265.4597,2136,-8.285925198391176
1721374020275.4087,2137,-8.22751165243058
1721374020285.3582,2138,-8.118283555173438
1721374020295.3074,2139,-7.966777824249052
1721374020305.2566,2140,-7.781125063185784
1721374020315.2058,2141,-7.568907101500071
1721374020325.1548,2142,-7.337059954984113
1721374020335.104,2143,-7.0917905642486065
1721374020345.0532,2144,-6.838502836414858
1721374020355.0024,2145,-6.581748386664697
1721374020364.9517,2146,-6.3252098862391115
1721374020374.901,2147,-6.071706449992088
1721374020384.85,2148,-5.823207903402347
1721374020394.7993,2149,-5.580850400115475
1721374020404.7483,2150,-5.344947890873476
1721374020414.6975,2151,-5.115002060567845
1721374020424.6467,2152,-4.8897192762004185
1721374020434.596,2153,-4.667035405874387
1721374020444.5452,2154,-4.444148585427859
1721374020454.4944,2155,-4.217572292782973
1721374020464.4434,2156,-3.9832231573556522
1721374020474.3926,2157,-3.7365471628208375
1721374020484.3418,2158,-3.472676768355669
1721374020494.291,2159,-3.1866042816206326
1721374020504.2402,2160,-2.8733621431581464
1721374020514.1897,2161,-2.528214998073214
1721374020524.139,2162,-2.1468714167757645
1721374020534.0876,2163,-1.7257130452027238
1721374020544.0369,2164,-1.262027869453442
1721374020553.986,2165,-0.7542301988691892
1721374020563.9353,2166,-0.20205643201561233
1721374020573.8845,2167,0.3932687451478748
1721374020583.8335,2168,1.028908533125119
1721374020593.783,2169,1.70035265659217
1721374020603.7322,2170,2.4014259168862324
1721374020613.6812,2171,3.124349983454742
1721374020623.6304,2172,3.8598381914206477
1721374020633.5796,2173,4.5972280227120255
1721374020643.5288,2174,5.324675806406899
1721374020653.478,2175,6.0294279506472055
1721374020663.4272,2176,6.698155513772537
1721374020673.3765,2177,7.317321895102386
1721374020683.3254,2178,7.8735613265630935
1721374020693.275,2179,8.354063403000861
1721374020703.224,2180,8.746959632790466
1721374020713.173,2181,9.04169514569982
1721374020723.1223,2182,9.2293700689724
1721374020733.0715,2183,9.303051854604005
1721374020743.0208,2184,9.25806362286277
1721374020752.9695,2185,9.0922380728159
1721374020762.9187,2186,8.806109903690146
1721374020772.8682,2187,8.40301537036571
1721374020782.8174,2188,7.889084954339261
1721374020792.7666,2189,7.273145905314057
1721374020802.7158,2190,6.566563204996107
1721374020812.665,2191,5.783029534969476
1721374020822.6145,2192,4.938290832965468
1721374020832.5632,2193,4.049782358688229
1721374020842.5125,2194,3.1361578422498337
1721374020852.4617,2195,2.2167238076225573
1721374020862.411,2196,1.3108208616915522
1721374020872.36,2197,0.43719289043913073
1721374020882.309,2198,-0.3866355111615854
1721374020892.2583,2199,-1.1449508076490764
1721374020902.2075,2200,-1.8243656171775917
1721374020912.1567,2201,-2.4142146272782554
1721374020922.106,2202,-2.9068200260388615
1721374020932.0552,2203,-3.2976307109621534
1721374020942.0044,2204,-3.5852342431712434
1721374020951.9536,2205,-3.771235367745194
1721374020961.9028,2206,-3.859997012967427
1721374020971.8518,2207,-3.858254030430971
1721374020981.801,2208,-3.7746314006944375
1721374020991.7502,2209,-3.619110965968495
1721374021001.6997,2210,-3.4024933743053856
1721374021011.6487,2211,-3.1359009060604217
1721374021021.598,2212,-2.830359833700098
1721374021031.547,2213,-2.4964879119697807
1721374021041.496,2214,-2.1442937862326974
1721374021051.4453,2215,-1.7830694959214657
1721374021061.3943,2216,-1.4213377010222825
1721374021071.3435,2217,-1.0668130615178424
1721374021081.293,2218,-0.7263454430207463
1721374021091.2422,2219,-0.4058324087691686
1721374021101.1914,2220,-0.11011695492837434
1721374021111.1406,2221,0.15710466239832607
1721374021121.0896,2222,0.39335468094924825
1721374021131.0388,2223,0.597423257012566
1721374021140.988,2224,0.7693901691832872
1721374021150.9373,2225,0.9106175219967245
1721374021160.8865,2226,1.0237240884316177
1721374021170.8357,2227,1.1125496966644508
1721374021180.785,2228,1.182104723648604
1721374021190.734,2229,1.23850070880372
1721374021200.683,2230,1.2888622713617282
1721374021210.6323,2231,1.3412035423531117
1721374021220.5815,2232,1.4042337056886962
1721374021230.5308,2233,1.4870617456610167
1721374021240.48,2234,1.5987904849293204
1721374021250.4292,2235,1.7480111192882901
1721374021260.3782,2236,1.9422354950598506
1721374021270.3274,2237,2.187327558918991
1721374021280.2766,2238,2.4869975133008113
1721374021290.2258,2239,2.842405367261689
1721374021300.175,2240,3.251900848928668
1721374021310.1245,2241,3.7109026120190607
1721374021320.0735,2242,4.211903212031122
1721374021330.0227,2243,4.744594590245569
1721374021339.9717,2244,5.296113638023899
1721374021349.921,2245,5.851389076965884
1721374021359.87,2246,6.3935614044186035
1721374021369.819,2247,6.904461748695387
1721374021379.7686,2248,7.3651516940035275
1721374021389.7178,2249,7.7565278174409
1721374021399.667,2250,8.059978349359888
1721374021409.616,2251,8.258056976185308
1721374021419.5652,2252,8.335132523862315
1721374021429.5144,2253,8.277989188957822
1721374021439.4636,2254,8.07636545854756
1721374021449.4128,2255,7.723410094382725
1721374021459.362,2256,7.2160229635869175
1721374021469.3113,2257,6.555059578719313
1721374021479.2605,2258,5.745394125968883
1721374021489.2097,2259,4.795840638401211
1721374021499.1587,2260,3.7189282252267875
1721374021509.108,2261,2.5305238009546733
1721374021519.0571,2262,1.2493109473040902
1721374021529.0063,2263,-0.10384000599662575
1721374021538.9556,2264,-1.5065670790951782
1721374021548.9048,2265,-2.935746338145373
1721374021558.8538,2266,-4.368237144747469
1721374021568.803,2267,-5.781622541712275
1721374021578.7522,2268,-7.154912993612291
1721374021588.7014,2269,-8.469164322114278
1721374021598.6506,2270,-9.707953556630786
1721374021608.6,2271,-10.857678966984622
1721374021618.5493,2272,-11.907687280787139
1721374021628.498,2273,-12.850244850435084
1721374021638.4473,2274,-13.680355266075647
1721374021648.3965,2275,-14.395417907138079
1721374021658.3457,2276,-14.994748363427458
1721374021668.295,2277,-15.47902440376902
1721374021678.244,2278,-15.849737727136404
1721374021688.1934,2279,-16.108717942359743
1721374021698.1423,2280,-16.25777977556966
1721374021708.0916,2281,-16.298528255171576
1721374021718.0408,2282,-16.232327709072546
1721374021727.99,2283,-16.06041510720859
1721374021737.9392,2284,-15.78412240940698
1721374021747.8884,2285,-15.405150936975296
1721374021757.8376,2286,-14.925823961930513
1721374021767.7866,2287,-14.34925353756607
1721374021777.7358,2288,-13.679395564344754
1721374021787.6853,2289,-12.921017498005954
1721374021797.6345,2290,-12.079632351138539
1721374021807.5835,2291,-11.161437782920952
1721374021817.5327,2292,-10.173262375295257
1721374021827.482,2293,-9.122500116969814
1721374021837.4312,2294,-8.017018142966455
1721374021847.38,2295,-6.865041456863975
1721374021857.329,2296,-5.675038727638129
1721374021867.2786,2297,-4.455633221390177
1721374021877.2278,2298,-3.2155363689604237
1721374021887.177,2299,-1.9634831339654648
1721374021897.1262,2300,-0.7081565186786988
1721374021907.0754,2301,0.5419046943497781
1721374021917.0244,2302,1.7784245106126844
1721374021926.9736,2303,2.9935333902278054
1721374021936.9229,2304,4.179911674634185
1721374021946.872,2305,5.330900444625008
1721374021956.8213,2306,6.4405613346990505
1721374021966.7705,2307,7.503674947458614
1721374021976.7195,2308,8.51566825322535
1721374021986.6687,2309,9.472476470312628
1721374021996.618,2310,10.370367858270921
1721374022006.5671,2311,11.205765989993816
1721374022016.5164,2312,11.975091448836535
1721374022026.4656,2313,12.67463109034201
1721374022036.4148,2314,13.3004423456981
1721374022046.364,2315,13.848305981060111
1721374022056.3132,2316,14.313735660045893
1721374022066.2622,2317,14.692041738076062
1721374022076.2114,2318,14.978448541841512
1721374022086.1606,2319,15.168273033992904
1721374022096.11,2320,15.257169206571374
1721374022106.059,2321,15.241424461932207
1721374022116.0083,2322,15.118273287545872
1721374022125.9575,2323,14.886184436290534
1721374022135.9065,2324,14.545085225041731
1721374022145.8557,2325,14.096501876811356
1721374022155.8047,2326,13.543612724782685
1721374022165.7542,2327,12.891225705757424
1721374022175.7034,2328,12.145693147138774
1721374022185.6526,2329,11.314770755547102
1721374022195.6018,2330,10.407429580097824
1721374022205.5508,2331,9.433641994491454
1721374022215.5,2332,8.404170020650508
1721374022225.4492,2333,7.330375160118455
1721374022235.3984,2334,6.224055748674334
1721374022245.3477,2335,5.097316224187195
1721374022255.2969,2336,3.962473660179365
1721374022265.246,2337,2.8319935867022124
1721374022275.1953,2338,1.7184219006343302
1721374022285.1443,2339,0.634262895013311
1721374022295.0935,2340,-0.4082342048938083
1721374022305.0427,2341,-1.3973815023375893
1721374022314.992,2342,-2.3224249115242763
1721374022324.9412,2343,-3.1739470105052634
1721374022334.8904,2344,-3.9442545734121865
1721374022344.8396,2345,-4.627701805358454
1721374022354.7886,2346,-5.220919363618412
1721374022364.7378,2347,-5.722936272002342
1721374022374.687,2348,-6.135182844133702
1721374022384.6362,2349,-6.461371178078177
1721374022394.5854,2350,-6.707265356972312
1721374022404.535,2351,-6.880357026368057
1721374022414.484,2352,-6.9894649528135675
1721374022424.4329,2353,-7.0442929905465475
1721374022434.382,2354,-7.054986246959469
1721374022444.3313,2355,-7.031701884789621
1721374022454.2805,2356,-6.984186981885202
1721374022464.2295,2357,-6.921358433206312
1721374022474.179,2358,-6.850897809263681
1721374022484.1282,2359,-6.778887447215633
1721374022494.0771,2360,-6.709514628327255
1721374022504.0264,2361,-6.644867384211096
1721374022513.9756,2362,-6.584847364878978
1721374022523.9248,2363,-6.527217289994219
1721374022533.874,2364,-6.467777352562963
1721374022543.8232,2365,-6.400645350629059
1721374022553.7725,2366,-6.318606826994407
1721374022563.7217,2367,-6.213502402087468
1721374022573.671,2368,-6.076628796343767
1721374022583.62,2369,-5.899142614085841
1721374022593.569,2370,-5.672472636070677
1721374022603.5183,2371,-5.388759560880168
1721374022613.4675,2372,-5.041326876692361
1721374022623.4167,2373,-4.625145783203164
1721374022633.366,2374,-4.13723666865612
1721374022643.3147,2375,-3.576977458275738
1721374022653.2642,2376,-2.946329213059875
1721374022663.2134,2377,-2.249990668227514
1721374022673.1626,2378,-1.4954670765482445
1721374022683.1118,2379,-0.6930307149920674
1721374022693.061,2380,0.1444402634805777
1721374022703.0105,2381,1.0017599173434033
1721374022712.9592,2382,1.8618879292459818
1721374022722.9084,2383,2.706533943340507
1721374022732.8577,2384,3.516870308794004
1721374022742.807,2385,4.274292102156264
1721374022752.756,2386,4.961170900751494
1721374022762.705,2387,5.561554625437736
1721374022772.6543,2388,6.061760924416381
1721374022782.6038,2389,6.450820977740333
1721374022792.5527,2390,6.720759596966687
1721374022802.502,2391,6.866723673575171
1721374022812.4512,2392,6.886982421091371
1721374022822.4004,2393,6.7828218869923536
1721374022832.3496,2394,6.558356266650882
1721374022842.2988,2395,6.220287600402868
1721374022852.248,2396,5.777640571385098
1721374022862.197,2397,5.241470525042748
1721374022872.1462,2398,4.624529160533328
1721374022882.0957,2399,3.940893333844642
1721374022892.045,2400,3.2055841192977934
1721374022901.994,2401,2.4342052059032824
1721374022911.943,2402,1.6426211824159942
1721374022921.8923,2403,0.8466749328794313
1721374022931.8413,2404,0.06191744108767607
1721374022941.7903,2405,-0.6966782522109752
1721374022951.7395,2406,-1.4150243032208827
1721374022961.689,2407,-2.0802349976595176
1721374022971.6382,2408,-2.6809458562097723
1721374022981.5874,2409,-3.207632459009567
1721374022991.5366,2410,-3.6529130757297685
1721374023001.4856,2411,-4.011805249114504
1721374023011.4348,2412,-4.281910970306784
1721374023021.384,2413,-4.463508585802675
1721374023031.3333,2414,-4.559519320714093
1721374023041.2825,2415,-4.575320511104357
1721374023051.2317,2416,-4.5184097750569645
1721374023061.181,2417,-4.39795200877626
1721374023071.13,2418,-4.2242472708083705
1721374023081.079,2419,-4.008162189167348
1721374023091.0283,2420,-3.760574853042462
1721374023100.9775,2421,-3.491878119132317
1721374023110.9268,2422,-3.211569579594049
1721374023120.876,2423,-2.927938048677589
1721374023130.8252,2424,-2.6478410100875807
1721374023140.7744,2425,-2.376561961880707
1721374023150.7234,2426,-2.117739554901908
1721374023160.6726,2427,-1.8733563879109851
1721374023170.6218,2428,-1.6437705629662014
1721374023180.571,2429,-1.427790315409305
1721374023190.5205,2430,-1.2228108416574017
1721374023200.4695,2431,-1.0250192883926197
1721374023210.4187,2432,-0.8296515401672733
1721374023220.3677,2433,-0.6312775347514283
1721374023230.317,2434,-0.4240867696542879
1721374023240.266,2435,-0.20215006657670487
1721374023250.215,2436,0.04034292130641096
1721374023260.1646,2437,0.3088561400282582
1721374023270.1138,2438,0.6082800404897056
1721374023280.063,2439,0.942700491799055
1721374023290.0122,2440,1.3151546446314077
1721374023299.9612,2441,1.7273651159254426
1721374023309.9104,2442,2.1794705795803306
1721374023319.8596,2443,2.669806671619031
1721374023329.8088,2444,3.1947896410863548
1721374023339.758,2445,3.7489163978925304
1721374023349.7073,2446,4.3248624811684175
1721374023359.6565,2447,4.913647237098869
1721374023369.6057,2448,5.504831462174946
1721374023379.5547,2449,6.086725658942897
1721374023389.504,2450,6.646612734425451
1721374023399.4531,2451,7.170998417618879
1721374023409.4023,2452,7.645898132863245
1721374023419.3516,2453,8.057170004400898
1721374023429.3008,2454,8.390898916839824
1721374023439.2498,2455,8.633817743347768
1721374023449.199,2456,8.773742978010308
1721374023459.1482,2457,8.800017889869372
1721374023469.0974,2458,8.703968954412723
1721374023479.0466,2459,8.479357609027554
1721374023488.9958,2460,8.122772879793109
1721374023498.9453,2461,7.633913343090085
1721374023508.894,2462,7.015744244714943
1721374023518.8433,2463,6.274539467121616
1721374023528.7925,2464,5.419817754480542
1721374023538.7417,2465,4.464177637946153
1721374023548.691,2466,3.4230226697694013
1721374023558.64,2467,2.3141513098945503
1721374023568.5894,2468,1.1572022069640868
1721374023578.5386,2469,-0.027003459422370726
1721374023588.4875,2470,-1.217149501201871
1721374023598.4368,2471,-2.3920822297597772
1721374023608.386,2472,-3.531414124687617
1721374023618.3352,2473,-4.616078336402159
1721374023628.2844,2474,-5.628838730666253
1721374023638.2336,2475,-6.554742885532628
1721374023648.1829,2476,-7.381501023366878
1721374023658.1318,2477,-8.099783090021983
1721374023668.0813,2478,-8.70342736767971
1721374023678.0305,2479,-9.189548025617803
1721374023687.9795,2480,-9.558527457483809
1721374023697.9287,2481,-9.813872995421054
1721374023707.878,2482,-9.961915820531122
1721374023717.8271,2483,-10.011365286169934
1721374023727.776,2484,-9.972781250087472
1721374023737.725,2485,-9.858034383774683
1721374023747.6746,2486,-9.679797265823769
1721374023757.6238,2487,-9.451085914282542
1721374023767.573,2488,-9.184856530486197
1721374023777.5222,2489,-8.893648279510712
1721374023787.4714,2490,-8.589249882924717
1721374023797.421,2491,-8.282367024110412
1721374023807.3696,2492,-7.982297491141652
1721374023817.3188,2493,-7.696658478397743
1721374023827.268,2494,-7.43120409890874
1721374023837.2173,2495,-7.189728592497869
1721374023847.1665,2496,-6.9740288478047034
1721374023857.1155,2497,-6.783911347387538
1721374023867.0647,2498,-6.617244850593017
1721374023877.014,2499,-6.4700783275007945
1721374023886.9631,2500,-6.336858956530157
1721374023896.9124,2501,-6.210762371552327
1721374023906.8616,2502,-6.084098245519678
1721374023916.8108,2503,-5.948734354451619
1721374023926.76,2504,-5.796496670949662
1721374023936.7092,2505,-5.61951894583814
1721374023946.6582,2506,-5.410525972922929
1721374023956.6074,2507,-5.163050350625609
1721374023966.5566,2508,-4.871599742203651
1721374023976.506,2509,-4.531797983363529
1721374023986.455,2510,-4.140516947480473
1721374023996.4043,2511,-3.696001392084223
1721374024006.3535,2512,-3.19796782317554
1721374024016.3027,2513,-2.647644739837908
1721374024026.2517,2514,-2.047732315544078
1721374024036.2007,2515,-1.4022834397098665
1721374024046.15,2516,-0.7165212437160591
1721374024056.0994,2517,0.0033878621121367263
1721374024066.0486,2518,0.7505782258857655
1721374024075.9978,2519,1.5177184907924126
1721374024085.947,2520,2.2972281927806777
1721374024095.896,2521,3.0814871590063433
1721374024105.8452,2522,3.8630405024238503
1721374024115.7944,2523,4.634790792558097
1721374024125.7437,2524,5.390160740600775
1721374024135.6929,2525,6.123202541793187
1721374024145.642,2526,6.828639912098342
1721374024155.5913,2527,7.501849587714199
1721374024165.5403,2528,8.138793267096267
1721374024175.4895,2529,8.735908328370057
1721374024185.4387,2530,9.289978904884324
1721374024195.388,2531,9.798023798125596
1721374024205.3372,2532,10.257234135705657
1721374024215.2864,2533,10.66497634422248
1721374024225.2356,2534,11.01885326549939
1721374024235.1846,2535,11.316797590184802
1721374024245.1338,2536,11.557174239975495
1721374024255.083,2537,11.738884337547683
1721374024265.0322,2538,11.861464141022951
1721374024274.9814,2539,11.925159384517896
1721374024284.931,2540,11.930954225508058
1721374024294.88,2541,11.880549079061447
1721374024304.829,2542,11.776297028204791
1721374024314.778,2543,11.621113557112405
1721374024324.7273,2544,11.41837577869743
1721374024334.6765,2545,11.171832449291369
1721374024344.6255,2546,10.885543949338455
1721374024354.575,2547,10.56385235954303
1721374024364.5242,2548,10.21136000550479
1721374024374.4734,2549,9.832894596646556
1721374024384.4224,2550,9.433466083093148
1721374024394.3716,2551,9.01824717675356
1721374024404.3208,2552,8.592600936553318
1721374024414.27,2553,8.16214030546072
1721374024424.2192,2554,7.7327751408905465
1721374024434.1685,2555,7.310704730723175
1721374024444.1177,2556,6.902343402135744
1721374024454.067,2557,6.514203045121044
1721374024464.016,2558,6.1527680034353045
1721374024473.965,2559,5.824372722783811
1721374024483.9143,2560,5.535062625244331
1721374024493.8635,2561,5.290422974645672
1721374024503.8127,2562,5.09538771550539
1721374024513.762,2563,4.954046212717388
1721374024523.7112,2564,4.8694407330794025
1721374024533.6602,2565,4.843326077947404
1721374024543.6094,2566,4.875874966503345
1721374024553.5586,2567,4.965345187798242
1721374024563.5078,2568,5.107743746024714
1721374024573.457,2569,5.296526028357544
1721374024583.4062,2570,5.522368562332348
1721374024593.3557,2571,5.7730492255647885
1721374024603.3044,2572,6.033454065761727
1721374024613.2537,2573,6.285710399954261
1721374024623.203,2574,6.509428298442376
1721374024633.152,2575,6.682026788120783
1721374024643.1013,2576,6.7791318009856
1721374024653.0503,2577,6.7750486005912265
1721374024662.9998,2578,6.643320002231684
1721374024672.9487,2579,6.357385784725993
1721374024682.898,2580,5.891360343018562
1721374024692.8472,2581,5.220932730754286
1721374024702.7964,2582,4.324361913356845
1721374024712.7456,2583,3.183511699199978
1721374024722.6948,2584,1.784866938487374
1721374024732.644,2585,0.12049451184640984
1721374024742.593,2586,-1.8110586805648667
1721374024752.5422,2587,-4.003928845020114
1721374024762.4917,2588,-6.444183797425729
1721374024772.441,2589,-9.109220836471307
1721374024782.39,2590,-11.967392627072584
1721374024792.339,2591,-14.977929314539416
1721374024802.2883,2592,-18.091211090533633
1721374024812.2375,2593,-21.249428994570223
1721374024822.1863,2594,-24.387651205439223
1721374024832.1355,2595,-27.435299096168652
1721374024842.085,2596,-30.318033639753946
1721374024852.0342,2597,-32.96004439828066
1721374024861.9834,2598,-35.286707054364264
1721374024871.9326,2599,-37.22752609201582
1721374024881.8818,2600,-38.71921623694467
1721374024891.8308,2601,-39.708721100193465
1721374024901.78,2602,-40.155936060475476
1721374024911.7292,2603,-40.03590302360206
1721374024921.6785,2604,-39.340284798405634
1721374024931.6277,2605,-38.07800204148467
1721374024941.577,2606,-36.27500344506347
1721374024951.526,2607,-33.973218938975656
1721374024961.475,2608,-31.22880664580977
1721374024971.4243,2609,-28.109835427759943
1721374024981.3735,2610,-24.693541743557628
1721374024991.3228,2611,-21.063287543821943
1721374025001.272,2612,-17.305355235850442
1721374025011.2212,2613,-13.505741008330887
1721374025021.1704,2614,-9.747115047515555
1721374025031.1196,2615,-6.1060896249614105
1721374025041.0686,2616,-2.650898877322195
1721374025051.0178,2617,0.5604295942804228
1721374025060.967,2618,3.4813614959086783
1721374025070.9165,2619,6.077598944307598
1721374025080.8655,2620,8.327304643409484
1721374025090.8147,2621,10.220824269174388
1721374025100.764,2622,11.759933920903498
1721374025110.713,2623,12.956688937122292
1721374025120.662,2624,13.83198781618915
1721374025130.611,2625,14.413959789593296
1721374025140.5603,2626,14.736260957824841
1721374025150.5098,2627,14.836337958289182
1721374025160.459,2628,14.753700304412915
1721374025170.4082,2629,14.528246714886873
1721374025180.3572,2630,14.19870035247346
1721374025190.3064,2631,13.801204267785211
1721374025200.2556,2632,13.368124666366823
1721374025210.2048,2633,12.927114057792158
1721374025220.154,2634,12.500483160841865
1721374025230.1033,2635,12.104907947439001
1721374025240.0525,2636,11.75146220179956
1721374025250.0017,2637,11.445934076149502
1721374025259.9507,2638,11.18937349582381
1721374025269.9,2639,10.978822049287777
1721374025279.849,2640,10.808181541377424
1721374025289.7983,2641,10.669171679631688
1721374025299.7476,2642,10.552310690457201
1721374025309.6968,2643,10.447840209959786
1721374025319.646,2644,10.346530783055082
1721374025329.595,2645,10.240339336024359
1721374025339.5442,2646,10.12291525450312
1721374025349.4934,2647,9.989961371521812
1721374025359.4426,2648,9.839453574919066
1721374025369.3918,2649,9.671709092042734
1721374025379.3413,2650,9.489294427651824
1721374025389.2903,2651,9.296786566526912
1721374025399.2393,2652,9.10041194427678
1721374025409.1885,2653,8.907582725117228
1721374025419.1377,2654,8.72635211914914
1721374025429.087,2655,8.56481658379597
1721374025439.036,2656,8.430496401465499
1721374025448.9854,2657,8.329736171307063
1721374025458.9346,2658,8.267177699081751
1721374025468.8835,2659,8.245350897910264
1721374025478.8328,2660,8.264406379920866
1721374025488.782,2661,8.322000495514155
1721374025498.7312,2662,8.413341040894165
1721374025508.6804,2663,8.531387508148512
1721374025518.6296,2664,8.667177484539929
1721374025528.5789,2665,8.810245058307324
1721374025538.528,2666,8.949107589411364
1721374025548.4773,2667,9.071803098943976
1721374025558.4265,2668,9.16645274643247
1721374025568.3755,2669,9.221813252890987
1721374025578.3247,2670,9.227783471092016
1721374025588.274,2671,9.175833160211104
1721374025598.2231,2672,9.059326138167917
1721374025608.1724,2673,8.873714649431989
1721374025618.121,2674,8.616592210450506
1721374025628.0706,2675,8.287615320907873
1721374025638.0198,2676,7.888326385255688
1721374025647.969,2677,7.421913477614543
1721374025657.9182,2678,6.892936178598051
1721374025667.8674,2679,6.307044222471526
1721374025677.817,2680,5.670715295304547
1721374025687.7656,2681,4.991033114190174
1721374025697.7148,2682,4.275515971681744
1721374025707.664,2683,3.5319923273713227
1721374025717.6133,2684,2.7685065857055484
1721374025727.5625,2685,1.9932330451148172
1721374025737.5117,2686,1.2143798247483901
1721374025747.4607,2687,0.4400648516926945
1721374025757.4102,2688,-0.32184868037016695
1721374025767.3591,2689,-1.0639410486319736
1721374025777.3083,2690,-1.7794026767285263
1721374025787.2576,2691,-2.4621373344331134
1721374025797.2068,2692,-3.1067948895498967
1721374025807.156,2693,-3.7087628800747385
1721374025817.1052,2694,-4.264158769345767
1721374025827.0544,2695,-4.769843988503796
1721374025837.0034,2696,-5.2234583281382045
1721374025846.9526,2697,-5.623477696455057
1721374025856.902,2698,-5.969303226680664
1721374025866.8513,2699,-6.261371123470807
1721374025876.8003,2700,-6.5012504182908835
1721374025886.7495,2701,-6.6916884923465
1721374025896.6987,2702,-6.836571484961505
1721374025906.6477,2703,-6.94078818106359
1721374025916.5967,2704,-7.010018438354787
1721374025926.546,2705,-7.050493282826562
1721374025936.4954,2706,-7.068772757797104
1721374025946.4446,2707,-7.071561619384838
1721374025956.3938,2708,-7.065556936663951
1721374025966.343,2709,-7.0573139057194565
1721374025976.2922,2710,-7.053121424444909
1721374025986.2412,2711,-7.058883344195871
1721374025996.1904,2712,-7.080004939178765
1721374026006.1396,2713,-7.121285961663121
1721374026016.0889,2714,-7.1868096886695
1721374026026.038,2715,-7.2798062493383355
1721374026035.9873,2716,-7.402486354976746
1721374026045.9363,2717,-7.555874174027208
1721374026055.8855,2718,-7.739681199855961
1721374026065.8347,2719,-7.952251641550072
1721374026075.784,2720,-8.19059070904032
1721374026085.7332,2721,-8.45047267938089
1721374026095.6824,2722,-8.72661698122311
1721374026105.6316,2723,-9.012909931542845
1721374026115.5808,2724,-9.302634874262496
1721374026125.5298,2725,-9.588671510175082
1721374026135.479,2726,-9.86364977592844
1721374026145.4282,2727,-10.120076476444972
1721374026155.3774,2728,-10.350464624311414
1721374026165.327,2729,-10.547479678274563
1721374026175.276,2730,-10.704092164286505
1721374026185.225,2731,-10.813711600754498
1721374026195.174,2732,-10.870274352623925
1721374026205.1233,2733,-10.868266954102788
1721374026215.0725,2734,-10.802693461707221
1721374026225.0215,2735,-10.669029148972408
1721374026234.9707,2736,-10.463205744371113
1721374026244.9202,2737,-10.18163915835189
1721374026254.8694,2738,-9.82128469341522
1721374026264.8186,2739,-9.379710314942924
1721374026274.7676,2740,-8.855189113187096
1721374026284.7168,2741,-8.246810981470448
1721374026294.666,2742,-7.554609825802135
1721374026304.6152,2743,-6.77969815565375
1721374026314.5645,2744,-5.924393494441482
1721374026324.5137,2745,-4.99231851783398
1721374026334.463,2746,-3.988463864585963
1721374026344.412,2747,-2.919212244555409
1721374026354.361,2748,-1.792326495318619
1721374026364.3103,2749,-0.6169012140363977
1721374026374.2595,2750,0.5967256778923687
1721374026384.2087,2751,1.8370976789281037
1721374026394.158,2752,3.091780536985519
1721374026404.1072,2753,4.347493181468109
1721374026414.0562,2754,5.590219496162895
1721374026424.0054,2755,6.805320027594435
1721374026433.9546,2756,7.977685028739512
1721374026443.9038,2757,9.09196997052593
1721374026453.853,2758,10.132926850875133
1721374026463.8022,2759,11.085811747475177
1721374026473.7517,2760,11.936834254810158
1721374026483.7007,2761,12.673612378647329
1721374026493.6497,2762,13.28559533583669
1721374026503.5989,2763,13.764419053341918
1721374026513.548,2764,14.104173085130652
1721374026523.4973,2765,14.30158120886586
1721374026533.4463,2766,14.356112649819478
1721374026543.3958,2767,14.270029184639032
1721374026553.345,2768,14.048343934819579
1721374026563.294,2769,13.698653513821641
1721374026573.2432,2770,13.230825387563234
1721374026583.1924,2771,12.656557821085842
1721374026593.1416,2772,11.988854943733445
1721374026603.0908,2773,11.241468033315492
1721374026613.04,2774,10.428350223585594
1721374026622.9893,2775,9.563162745849132
1721374026632.9382,2776,8.658860350727835
1721374026642.8877,2777,7.727373929890647
1721374026652.837,2778,6.779404545340067
1721374026662.786,2779,5.824337384095781
1721374026672.735,2780,4.870265304742774
1721374026682.6843,2781,3.9240896020998393
1721374026692.6335,2782,2.991654663373569
1721374026702.5825,2783,2.0778738708339346
1721374026712.5315,2784,1.1868146828949524
1721374026722.481,2785,0.3217322887007285
1721374026732.4302,2786,-0.5149305501303437
1721374026742.3794,2787,-1.3215392352355002
1721374026752.3286,2788,-2.09722088670828
1721374026762.2778,2789,-2.841753382590414
1721374026772.2273,2790,-3.5553814876700867
1721374026782.176,2791,-4.2385646102675745
1721374026792.1252,2792,-4.8916813878242
1721374026802.0745,2793,-5.514734118629302
1721374026812.0237,2794,-6.1070911760518625
1721374026821.973,2795,-6.667282357969175
1721374026831.922,2796,-7.192849425136619
1721374026841.871,2797,-7.680259932214692
1721374026851.8203,2798,-8.124893078289356
1721374026861.7695,2799,-8.52109378356674
1721374026871.7188,2800,-8.862282968843912
1721374026881.668,2801,-9.141116655687961
1721374026891.6172,2802,-9.349694228773325
1721374026901.5664,2803,-9.479813767250063
1721374026911.5156,2804,-9.523259423030224
1721374026921.4646,2805,-9.472093765375183
1721374026931.4138,2806,-9.318931024752056
1721374026941.363,2807,-9.057195707483364
1721374026951.3125,2808,-8.681404571748933
1721374026961.2617,2809,-8.187505500842674
1721374026971.2107,2810,-7.573263405659457
1721374026981.16,2811,-6.838641596099832
1721374026991.1091,2812,-5.986117423195301
1721374027001.058,2813,-5.020896079241897
1721374027011.007,2814,-3.9510145499452096
1721374027020.9563,2815,-2.7873286473093675
1721374027030.9058,2816,-1.5433691893217265
1721374027040.855,2817,-0.23506146332422712
1721374027050.8042,2818,1.1196882477283263
1721374027060.7534,2819,2.5015268948387175
1721374027070.7024,2820,3.8902750432641096
1721374027080.6516,2821,5.265577033090486
1721374027090.6008,2822,6.607530008661839
1721374027100.55,2823,7.897256010501161
1721374027110.4993,2824,9.117379802096227
1721374027120.4485,2825,10.252378831186862
1721374027130.3977,2826,11.288796586585413
1721374027140.3467,2827,12.215322958348825
1721374027150.296,2828,13.022736325635078
1721374027160.245,2829,13.703714907733954
1721374027170.1943,2830,14.252564187047007
1721374027180.1436,2831,14.664922465167404
1721374027190.0928,2832,14.937483962613188
1721374027200.042,2833,15.067759056798995
1721374027209.9912,2834,15.053894310611675
1721374027219.9402,2835,14.894578959775927
1721374027229.8894,2836,14.589053219214746
1721374027239.8386,2837,14.13721385541904
1721374027249.7878,2838,13.539794451985413
1721374027259.7373,2839,12.798588784309123
1721374027269.6863,2840,11.916688629882085
1721374027279.6355,2841,10.898717035111742
1721374027289.5845,2842,9.751043708224826
